## atr values from 2021-06-21 to 2026-06-20:

2026-06-20: 7.088062088970891
2026-06-19: 7.088062088970891
2026-06-18: 7.088062088970891
2026-06-17: 7.25252746450471
2026-06-16: 7.217335579262284
2026-06-15: 7.271745257234382
2026-06-14: 7.319572284984384
2026-06-13: 7.319572284984384
2026-06-12: 7.319572284984384
2026-06-11: 7.304153266040875
2026-06-10: 7.29601092788176
2026-06-09: 7.290319836396702
2026-06-08: 6.792651380302218
2026-06-07: 6.066702988883158
2026-06-06: 6.066702988883158
2026-06-05: 6.066702988883158
2026-06-04: 5.916447870239555
2026-06-03: 6.072327348839713
2026-06-02: 5.917122041989643
2026-06-01: 5.669207226109034
2026-05-31: 5.563760970815743
2026-05-30: 5.563760970815743
2026-05-29: 5.563760970815743
2026-05-28: 5.570973259285944
2026-05-27: 5.751049627788709
2026-05-26: 5.811897908952744
2026-05-25: 5.939736679142619
2026-05-24: 5.939736679142619
2026-05-23: 5.939736679142619
2026-05-22: 5.939736679142619
2026-05-21: 5.903562295837484
2026-05-20: 5.962296730252867
2026-05-19: 6.057857923295155
2026-05-18: 6.203846712617138
2026-05-17: 6.238757998203072
2026-05-16: 6.238757998203072
2026-05-15: 6.238757998203072
2026-05-14: 6.204814521652587
2026-05-13: 6.292107382993652
2026-05-12: 6.205345379552057
2026-05-11: 6.47421875835774
2026-05-10: 6.6914668246556905
2026-05-09: 6.6914668246556905
2026-05-08: 6.6914668246556905
2026-05-07: 6.643635022720305
2026-05-06: 6.666671490034343
2026-05-05: 6.644601228304661
2026-05-04: 6.53552597712624
2026-05-03: 6.594819649753848
2026-05-02: 6.594819649753848
2026-05-01: 6.594819649753848
2026-04-30: 5.882470376949942
2026-04-29: 5.730910339244137
2026-04-28: 5.8643405149115155
2026-04-27: 5.883530713090443
2026-04-26: 5.875765511869761
2026-04-25: 5.875765511869761
2026-04-24: 5.875765511869761
2026-04-23: 6.0372448498809685
2026-04-22: 6.185017309853134
2026-04-21: 6.079017643460014
2026-04-20: 5.9587161176602335
2026-04-19: 6.105828005745985
2026-04-18: 6.105828005745985
2026-04-17: 6.105828005745985
2026-04-16: 5.891522325726063
2026-04-15: 5.892055363485076
2026-04-14: 5.672833011549131
2026-04-13: 5.7449257728268295
2026-04-12: 5.893267822181238
2026-04-11: 5.893267822181238
2026-04-10: 5.893267822181238
2026-04-09: 6.102973395238975
2026-04-08: 6.184329859104714
2026-04-07: 6.179721138821608
2026-04-06: 5.643710077155945
2026-04-05: 5.598283794338691
2026-04-04: 5.598283794338691
2026-04-03: 5.598283794338691
2026-04-02: 5.598283794338691
2026-04-01: 5.6077697144700105
2026-03-31: 5.820108350478151
2026-03-30: 5.587667191942088
2026-03-29: 5.605559530744668
2026-03-28: 5.605559530744668
2026-03-27: 5.605559530744668
2026-03-26: 5.466512717913873
2026-03-25: 5.408224363724605
2026-03-24: 5.562944367854994
2026-03-23: 5.585083267648306
2026-03-22: 5.506711340711078
2026-03-21: 5.506711340711078
2026-03-20: 5.506711340711078
2026-03-19: 5.684377490470701
2026-03-18: 5.7734965959632625
2026-03-17: 5.761109028088112
2026-03-16: 5.977556119792827
2026-03-15: 6.129190940543466
2026-03-14: 6.129190940543466
2026-03-13: 6.129190940543466
2026-03-12: 6.0773045508619
2026-03-11: 6.035259012033192
2026-03-10: 6.301229541963831
2026-03-09: 6.360946531775767
2026-03-08: 6.276163583312295
2026-03-07: 6.276163583312295
2026-03-06: 6.276163583312295
2026-03-05: 6.303978089653575
2026-03-04: 6.383888246678427
2026-03-03: 6.511446825013412
2026-03-02: 6.595020067946089
2026-03-01: 6.615855486562426
2026-02-28: 6.615855486562426
2026-02-27: 6.615855486562426
2026-02-26: 6.351634905365233
2026-02-25: 6.432136844889276
2026-02-24: 6.627960129652483
2026-02-23: 6.468416438168907
2026-02-22: 6.501031654858442
2026-02-21: 6.501031654858442
2026-02-20: 6.501031654858442
2026-02-19: 6.494654810238208
2026-02-18: 6.653786312245914
2026-02-17: 6.829771964997444
2026-02-16: 6.528975934280785
2026-02-15: 6.528975934280785
2026-02-14: 6.528975934280785
2026-02-13: 6.528975934280785
2026-02-12: 6.510145383219115
2026-02-11: 5.816640800435925
2026-02-10: 5.764535204817484
2026-02-09: 6.0212105385744605
2026-02-08: 5.984840810693135
2026-02-07: 5.984840810693135
2026-02-06: 5.984840810693135
2026-02-05: 6.0613127180227115
2026-02-04: 6.04615510293521
2026-02-03: 5.784135645181784
2026-02-02: 5.9012152193089005
2026-02-01: 5.489071769314416
2026-01-31: 5.489071769314416
2026-01-30: 5.489071769314416
2026-01-29: 5.165002152300143
2026-01-28: 5.159981332335148
2026-01-27: 5.222908819450282
2026-01-26: 5.122526870828938
2026-01-25: 4.862397006638126
2026-01-24: 4.862397006638126
2026-01-23: 4.862397006638126
2026-01-22: 4.873255280427244
2026-01-21: 4.990907261182656
2026-01-20: 4.88496368436014
2026-01-19: 4.330920111801114
2026-01-18: 4.330920111801114
2026-01-17: 4.330920111801114
2026-01-16: 4.330920111801114
2026-01-15: 4.359249435268667
2026-01-14: 4.388220798265902
2026-01-13: 4.333427049374017
2026-01-12: 4.404179839884519
2026-01-11: 4.397451003136173
2026-01-10: 4.397451003136173
2026-01-09: 4.397451003136173
2026-01-08: 4.429363309954292
2026-01-07: 4.414590075137092
2026-01-06: 4.4570340367750445
2026-01-05: 4.382965617584719
2026-01-04: 4.307806278302935
2026-01-03: 4.307806278302935
2026-01-02: 4.307806278302935
2026-01-01: 3.960437271505975
2025-12-31: 3.960437271505975
2025-12-30: 4.11690063058999
2025-12-29: 4.2953814764780605
2025-12-28: 4.471468363337783
2025-12-27: 4.471468363337783
2025-12-26: 4.471468363337783
2025-12-25: 4.622707834046486
2025-12-24: 4.622707834046486
2025-12-23: 4.730301478654642
2025-12-22: 4.868436170549063
2025-12-21: 4.984181598795637
2025-12-20: 4.984181598795637
2025-12-19: 4.984181598795637
2025-12-18: 5.00671123947633
2025-12-17: 4.878950180002251
2025-12-16: 4.907207361764627
2025-12-15: 4.999830119524463
2025-12-14: 4.823167719541497
2025-12-13: 4.823167719541497
2025-12-12: 4.823167719541497
2025-12-11: 5.009908082587202
2025-12-10: 4.951494856312754
2025-12-09: 5.078236063812093
2025-12-08: 5.2300835965100285
2025-12-07: 5.3621291336949275
2025-12-06: 5.3621291336949275
2025-12-05: 5.3621291336949275
2025-12-04: 5.537347036903515
2025-12-03: 5.491863904529383
2025-12-02: 5.505842547816179
2025-12-01: 5.563127112646418
2025-11-30: 5.432098551391742
2025-11-29: 5.432098551391742
2025-11-28: 5.432098551391742
2025-11-27: 5.618842457052239
2025-11-26: 5.618842457052239
2025-11-25: 5.8283983191642985
2025-11-24: 5.882852706817039
2025-11-23: 5.867018727574031
2025-11-22: 5.867018727574031
2025-11-21: 5.867018727574031
2025-11-20: 5.730191883442577
2025-11-19: 5.44079559839629
2025-11-18: 5.344122299853255
2025-11-17: 5.341363375169704
2025-11-16: 5.239342929505123
2025-11-15: 5.239342929505123
2025-11-14: 5.239342929505123
2025-11-13: 5.154046894365232
2025-11-12: 5.196553083306208
2025-11-11: 5.286862879793505
2025-11-10: 5.196005075293014
2025-11-09: 5.11428303251278
2025-11-08: 5.11428303251278
2025-11-07: 5.11428303251278
2025-11-06: 5.084270426480094
2025-11-05: 5.052719300750531
2025-11-04: 5.075500599693341
2025-11-03: 5.169071609844087
2025-11-02: 5.213844097549311
2025-11-01: 5.213844097549311
2025-10-31: 5.213844097549311
2025-10-30: 4.988987258412198
2025-10-29: 4.938598890736743
2025-10-28: 4.98865362750111
2025-10-27: 5.238926079500652
2025-10-26: 5.158673739825148
2025-10-25: 5.158673739825148
2025-10-24: 5.158673739825148
2025-10-23: 5.1757988373280615
2025-10-22: 5.3737354677566955
2025-10-21: 5.217939698756546
2025-10-20: 5.353914992710372
2025-10-19: 4.838380188502009
2025-10-18: 4.838380188502009
2025-10-17: 4.838380188502009
2025-10-16: 4.741889142016791
2025-10-15: 4.783718613443333
2025-10-14: 4.818025101480228
2025-10-13: 4.870311535019388
2025-10-12: 4.905910355867023
2025-10-11: 4.905910355867023
2025-10-10: 4.905910355867023
2025-10-09: 4.333666599257755
2025-10-08: 4.289631579762672
2025-10-07: 4.434741342254033
2025-10-06: 4.624764233071517
2025-10-05: 4.672156606042473
2025-10-04: 4.672156606042473
2025-10-03: 4.672156606042473
2025-10-02: 4.625778684824822
2025-10-01: 4.672482465187481
2025-09-30: 4.712807137648434
2025-09-29: 4.859786897462192
2025-09-28: 5.045687686316256
2025-09-27: 5.045687686316256
2025-09-26: 5.045687686316256
2025-09-25: 5.140799773157029
2025-09-24: 5.117430230315427
2025-09-23: 5.150559248202256
2025-09-22: 5.258341698273973
2025-09-21: 4.808321535036857
2025-09-20: 4.808321535036857
2025-09-19: 4.808321535036857
2025-09-18: 4.532328858165628
2025-09-17: 4.531956687916279
2025-09-16: 4.698774556957737
2025-09-15: 4.6843594818561884
2025-09-14: 4.72866591227688
2025-09-13: 4.72866591227688
2025-09-12: 4.72866591227688
2025-09-11: 4.671293881039003
2025-09-10: 4.739140886749026
2025-09-09: 4.459357655014255
2025-09-08: 4.386638399265127
2025-09-07: 4.431822183644695
2025-09-06: 4.431822183644695
2025-09-05: 4.431822183644695
2025-09-04: 4.555653269435808
2025-09-03: 4.6636978564917255
2025-09-02: 4.32211737539484
2025-09-01: 4.258017222183074
2025-08-31: 4.258017222183074
2025-08-30: 4.258017222183074
2025-08-29: 4.258017222183074
2025-08-28: 4.431377061477499
2025-08-27: 4.4600579660891215
2025-08-26: 4.6006353745079736
2025-08-25: 4.586341045272225
2025-08-24: 4.703648313381859
2025-08-23: 4.703648313381859
2025-08-22: 4.703648313381859
2025-08-21: 4.744067895901489
2025-08-20: 4.898821154220761
2025-08-19: 4.90823056150889
2025-08-18: 5.015782223872659
2025-08-17: 5.170726782103221
2025-08-16: 5.170726782103221
2025-08-15: 5.170726782103221
2025-08-14: 5.189546796934409
2025-08-13: 5.261208627049264
2025-08-12: 5.255538607327707
2025-08-11: 5.37369750653861
2025-08-10: 5.4188694903439
2025-08-09: 5.4188694903439
2025-08-08: 5.4188694903439
2025-08-07: 4.935431014855821
2025-08-06: 4.73277406489681
2025-08-05: 4.142158789394327
2025-08-04: 4.217138176081732
2025-08-03: 4.066493982716313
2025-08-02: 4.066493982716313
2025-08-01: 4.066493982716313
2025-07-31: 3.4537421271917825
2025-07-30: 3.514075938466908
2025-07-29: 3.4265783504758267
2025-07-28: 3.3844517862720247
2025-07-27: 3.5076453643779804
2025-07-26: 3.5076453643779804
2025-07-25: 3.5076453643779804
2025-07-24: 3.6364841924357516
2025-07-23: 3.7507161822304957
2025-07-22: 3.829297191805651
2025-07-21: 3.915454423861827
2025-07-20: 3.86419524954376
2025-07-19: 3.86419524954376
2025-07-18: 3.86419524954376
2025-07-17: 4.001307375149276
2025-07-16: 4.139771503888715
2025-07-15: 4.170128008744925
2025-07-14: 4.2403611974181405
2025-07-13: 4.289181103624571
2025-07-12: 4.289181103624571
2025-07-11: 4.289181103624571
2025-07-10: 4.4237394836857415
2025-07-09: 4.499691443686652
2025-07-08: 4.530916944284315
2025-07-07: 4.651124374696966
2025-07-06: 4.4396237146443145
2025-07-05: 4.4396237146443145
2025-07-04: 4.4396237146443145
2025-07-03: 4.4396237146443145
2025-07-02: 4.563535222736828
2025-07-01: 4.491640406880459
2025-06-30: 4.452522625063577
2025-06-29: 4.172110632003549
2025-06-28: 4.172110632003549
2025-06-27: 4.172110632003549
2025-06-26: 4.2463285780726645
2025-06-25: 4.329321010945242
2025-06-24: 4.404139311915259
2025-06-23: 4.4946729082217
2025-06-22: 4.5845094415170555
2025-06-21: 4.5845094415170555
2025-06-20: 4.5845094415170555
2025-06-19: 4.54487378101203
2025-06-18: 4.54487378101203
2025-06-17: 4.702931676383355
2025-06-16: 4.8187490352386
2025-06-15: 5.017794608141082
2025-06-14: 5.017794608141082
2025-06-13: 5.017794608141082
2025-06-12: 5.045967686563574
2025-06-11: 5.256363308305548
2025-06-10: 5.194088845415365
2025-06-09: 5.304013988700999
2025-06-08: 5.2538331308870445
2025-06-07: 5.2538331308870445
2025-06-06: 5.2538331308870445
2025-06-05: 5.26951702152173
2025-06-04: 5.322416079563683
2025-06-03: 5.414629600906692
2025-06-02: 5.615840060573348
2025-06-01: 5.893822595087839
2025-05-31: 5.893822595087839
2025-05-30: 5.893822595087839
2025-05-29: 5.950305961827927
2025-05-28: 6.001940286075463
2025-05-27: 6.246795765780294
2025-05-26: 6.308211523261461
2025-05-25: 6.308211523261461
2025-05-24: 6.308211523261461
2025-05-23: 6.308211523261461
2025-05-22: 6.188167912209756
2025-05-21: 6.430492305338618
2025-05-20: 6.440147612379395
2025-05-19: 6.648221653624895
2025-05-18: 6.623289242343197
2025-05-17: 6.623289242343197
2025-05-16: 6.623289242343197
2025-05-15: 6.9182392725231905
2025-05-14: 7.188373115977627
2025-05-13: 7.483884635536156
2025-05-12: 7.722444440565138
2025-05-11: 7.320431015945907
2025-05-10: 7.320431015945907
2025-05-09: 7.320431015945907
2025-05-08: 7.650158321584903
2025-05-07: 7.8277254584523615
2025-05-06: 7.956206827720002
2025-05-05: 8.290460416363448
2025-05-04: 8.381843944740517
2025-05-03: 8.381843944740517
2025-05-02: 8.381843944740517
2025-05-01: 8.17265104030707
2025-04-30: 8.368219971700652
2025-04-29: 8.483184218642528
2025-04-28: 8.839608424032601
2025-04-27: 9.210442983452076
2025-04-26: 9.210442983452076
2025-04-25: 9.210442983452076
2025-04-24: 9.647296753073723
2025-04-23: 9.938700981048665
2025-04-22: 10.071170562258436
2025-04-21: 10.20082270613947
2025-04-20: 10.43686098667983
2025-04-19: 10.43686098667983
2025-04-18: 10.43686098667983
2025-04-17: 10.43686098667983
2025-04-16: 10.890770485482282
2025-04-15: 10.98093350720078
2025-04-14: 11.541736729080158
2025-04-13: 11.297850255355375
2025-04-12: 11.297850255355375
2025-04-11: 11.297850255355375
2025-04-10: 11.135442961715706
2025-04-09: 10.77919394850631
2025-04-08: 9.410743683423195
2025-04-07: 8.51780619883894
2025-04-06: 7.678610690577304
2025-04-05: 7.678610690577304
2025-04-04: 7.678610690577304
2025-04-03: 7.056450778423063
2025-04-02: 5.866870657512281
2025-04-01: 5.999085283180512
2025-03-31: 6.094793773280145
2025-03-30: 5.845112853113558
2025-03-29: 5.845112853113558
2025-03-28: 5.845112853113558
2025-03-27: 5.8226168165514
2025-03-26: 5.931531692026772
2025-03-25: 6.039642760718176
2025-03-24: 6.196624879787326
2025-03-23: 6.427662138109767
2025-03-22: 6.427662138109767
2025-03-21: 6.427662138109767
2025-03-20: 6.343616032368312
2025-03-19: 6.428332247189315
2025-03-18: 6.458350590845772
2025-03-17: 6.67508899007641
2025-03-16: 6.786833839952526
2025-03-15: 6.786833839952526
2025-03-14: 6.786833839952526
2025-03-13: 6.974511329420729
2025-03-12: 6.856012258984475
2025-03-11: 6.860009704014756
2025-03-10: 6.6202216792098065
2025-03-09: 5.993164999609937
2025-03-08: 5.993164999609937
2025-03-07: 5.993164999609937
2025-03-06: 5.94838856793979
2025-03-05: 6.046318911260681
2025-03-04: 5.951302402153434
2025-03-03: 5.996657613265358
2025-03-02: 5.851910489103038
2025-03-01: 5.851910489103038
2025-02-28: 5.851910489103038
2025-02-27: 5.392249299660825
2025-02-26: 5.393835634276175
2025-02-25: 5.203482351499798
2025-02-24: 5.214269952397421
2025-02-23: 5.275624131917767
2025-02-22: 5.275624131917767
2025-02-21: 5.275624131917767
2025-02-20: 5.415921142393887
2025-02-19: 5.641998306299219
2025-02-18: 5.857920394683237
2025-02-17: 6.052957239489358
2025-02-16: 6.052957239489358
2025-02-15: 6.052957239489358
2025-02-14: 6.052957239489358
2025-02-13: 6.1696439287668055
2025-02-12: 6.1262007044486975
2025-02-11: 6.116907949516714
2025-02-10: 6.007425792661845
2025-02-09: 6.210136893570133
2025-02-08: 6.210136893570133
2025-02-07: 6.210136893570133
2025-02-06: 6.1726692377854935
2025-02-05: 6.389904088579958
2025-02-04: 6.535186750070247
2025-02-03: 6.542595538676016
2025-02-02: 6.258593827712495
2025-02-01: 6.258593827712495
2025-01-31: 6.258593827712495
2025-01-30: 5.689046570665538
2025-01-29: 5.853030217639607
2025-01-28: 5.856119641214349
2025-01-27: 5.517020816183173
2025-01-26: 5.225214357907248
2025-01-25: 5.225214357907248
2025-01-24: 5.225214357907248
2025-01-23: 5.304599248999849
2025-01-22: 5.351109396864445
2025-01-21: 5.431770657503151
2025-01-20: 5.039391913661037
2025-01-19: 5.039391913661037
2025-01-18: 5.039391913661037
2025-01-17: 5.039391913661037
2025-01-16: 5.119006032086306
2025-01-15: 4.749957451661395
2025-01-14: 4.68118927764921
2025-01-13: 4.762294452798888
2025-01-12: 4.583645533903092
2025-01-11: 4.583645533903092
2025-01-10: 4.583645533903092
2025-01-09: 4.194817077634956
2025-01-08: 4.194817077634956
2025-01-07: 4.237743908890467
2025-01-06: 4.242698558216049
2025-01-05: 4.253384183430581
2025-01-04: 4.253384183430581
2025-01-03: 4.253384183430581
2025-01-02: 4.405532570514279
2025-01-01: 4.087082316002825
2024-12-31: 4.087082316002825
2024-12-30: 4.107199091228952
2024-12-29: 4.053194343951552
2024-12-28: 4.053194343951552
2024-12-27: 4.053194343951552
2024-12-26: 3.9094304679088427
2024-12-25: 4.021362047841228
2024-12-24: 4.021362047841228
2024-12-23: 4.10598158179828
2024-12-22: 4.253670140005177
2024-12-21: 4.253670140005177
2024-12-20: 4.253670140005177
2024-12-19: 3.869268339266069
2024-12-18: 3.7916095470011877
2024-12-17: 3.58338920872287
2024-12-16: 3.549473626567765
2024-12-15: 3.5374076473881826
2024-12-14: 3.5374076473881826
2024-12-13: 3.5374076473881826
2024-12-12: 3.5763909494267585
2024-12-11: 3.617606688617722
2024-12-10: 3.5488697851742117
2024-12-09: 3.6024912979510177
2024-12-08: 3.459978930675894
2024-12-07: 3.459978930675894
2024-12-06: 3.459978930675894
2024-12-05: 3.531222373360692
2024-12-04: 3.6186480479658556
2024-12-03: 3.678402205243002
2024-12-02: 3.6663181170632444
2024-12-01: 3.6708853313515255
2024-11-30: 3.6708853313515255
2024-11-29: 3.6708853313515255
2024-11-28: 3.659752051145126
2024-11-27: 3.659752051145126
2024-11-26: 3.7975737738753557
2024-11-25: 3.8833211108672256
2024-11-24: 3.9137526202035433
2024-11-23: 3.9137526202035433
2024-11-22: 3.9137526202035433
2024-11-21: 4.0114938417654225
2024-11-20: 3.979935950572103
2024-11-19: 3.9772890984018487
2024-11-18: 4.015712854127294
2024-11-17: 3.96231458247098
2024-11-16: 3.96231458247098
2024-11-15: 3.96231458247098
2024-11-14: 3.9651925844999014
2024-11-13: 3.974405380945701
2024-11-12: 3.982797828602123
2024-11-11: 4.118717756714955
2024-11-10: 4.01820940777361
2024-11-09: 4.01820940777361
2024-11-08: 4.01820940777361
2024-11-07: 4.155324295925022
2024-11-06: 4.080993316502286
2024-11-05: 4.022323943888577
2024-11-04: 4.11718812834317
2024-11-03: 4.189574128646827
2024-11-02: 4.189574128646827
2024-11-01: 4.189574128646827
2024-10-31: 4.0812311556569885
2024-10-30: 4.034032065796911
2024-10-29: 4.0297766471310075
2024-10-28: 4.186294913606664
2024-10-27: 4.254835705950448
2024-10-26: 4.254835705950448
2024-10-25: 4.254835705950448
2024-10-24: 4.303451035133606
2024-10-23: 4.450480180954911
2024-10-22: 4.174383590107258
2024-10-21: 4.199250785312942
2024-10-20: 4.339027641271458
2024-10-19: 4.339027641271458
2024-10-18: 4.339027641271458
2024-10-17: 4.365105974064832
2024-10-16: 4.446635281381202
2024-10-15: 4.482518869824333
2024-10-14: 4.3547163111073655
2024-10-13: 4.370550666350651
2024-10-12: 4.370550666350651
2024-10-11: 4.370550666350651
2024-10-10: 4.548700298796403
2024-10-09: 4.717648524784387
2024-10-08: 4.70489912388313
2024-10-07: 4.73927091372091
2024-10-06: 4.686191926389703
2024-10-05: 4.686191926389703
2024-10-04: 4.686191926389703
2024-10-03: 4.751191266031353
2024-10-02: 4.8502041881375755
2024-10-01: 4.891171847145758
2024-09-30: 4.560408549057025
2024-09-29: 4.5134196183354485
2024-09-28: 4.5134196183354485
2024-09-27: 4.5134196183354485
2024-09-26: 4.6911070376657324
2024-09-25: 4.816037939647368
2024-09-24: 4.930727423002061
2024-09-23: 5.033623704732667
2024-09-22: 5.142908925344954
2024-09-21: 5.142908925344954
2024-09-20: 5.142908925344954
2024-09-19: 5.120878741245393
2024-09-18: 4.81771143431941
2024-09-17: 4.736305235002584
2024-09-16: 4.917395128594949
2024-09-15: 4.640567477830846
2024-09-14: 4.640567477830846
2024-09-13: 4.640567477830846
2024-09-12: 4.834907947229613
2024-09-11: 4.922036038793085
2024-09-10: 4.90363061200576
2024-09-09: 4.918166991256651
2024-09-08: 4.94832840082062
2024-09-07: 4.94832840082062
2024-09-06: 4.94832840082062
2024-09-05: 4.911330445298528
2024-09-04: 4.935624297184276
2024-09-03: 4.91139257131195
2024-09-02: 4.69136562804436
2024-09-01: 4.69136562804436
2024-08-31: 4.69136562804436
2024-08-30: 4.69136562804436
2024-08-29: 4.8292959112964065
2024-08-28: 4.709847763910495
2024-08-27: 4.752997059455341
2024-08-26: 4.816262788455051
2024-08-25: 4.927915599388945
2024-08-24: 4.927915599388945
2024-08-23: 4.927915599388945
2024-08-22: 5.009981736899343
2024-08-21: 5.056367529072441
2024-08-20: 5.221611790920508
2024-08-19: 5.4919508956878875
2024-08-18: 5.684591018811962
2024-08-17: 5.684591018811962
2024-08-16: 5.684591018811962
2024-08-15: 5.8790713108053865
2024-08-14: 6.054151851030983
2024-08-13: 6.265607779673868
2024-08-12: 6.41468755070498
2024-08-11: 6.609594601483958
2024-08-10: 6.609594601483958
2024-08-09: 6.609594601483958
2024-08-08: 6.751202678527265
2024-08-07: 6.860996921060533
2024-08-06: 6.835863086629617
2024-08-05: 6.681437749865944
2024-08-04: 5.375774121407825
2024-08-03: 5.375774121407825
2024-08-02: 5.375774121407825
2024-08-01: 5.187584504198795
2024-07-31: 5.01771215194106
2024-07-30: 5.020852059536486
2024-07-29: 5.0860059801683795
2024-07-28: 5.206505285351012
2024-07-27: 5.206505285351012
2024-07-26: 5.206505285351012
2024-07-25: 5.341611526495917
2024-07-24: 5.277388767318691
2024-07-23: 5.082394974653847
2024-07-22: 5.148469629161595
2024-07-21: 5.186834626616367
2024-07-20: 5.186834626616367
2024-07-19: 5.186834626616367
2024-07-18: 5.317377699239189
2024-07-17: 5.10334263777768
2024-07-16: 4.872079715222467
2024-07-15: 4.946380790517003
2024-07-14: 4.816674985998702
2024-07-13: 4.816674985998702
2024-07-12: 4.816674985998702
2024-07-11: 4.800538876201073
2024-07-10: 4.61995956078243
2024-07-09: 4.639785370818962
2024-07-08: 4.76561678180072
2024-07-07: 4.7813948905824715
2024-07-06: 4.7813948905824715
2024-07-05: 4.7813948905824715
2024-07-04: 4.775505474270866
2024-07-03: 4.775505474270866
2024-07-02: 4.95067034067489
2024-07-01: 4.928825486819523
2024-06-30: 4.782517472200656
2024-06-29: 4.782517472200656
2024-06-28: 4.782517472200656
2024-06-27: 4.710368740867143
2024-06-26: 4.814175147296896
2024-06-25: 4.74294001040274
2024-06-24: 4.860690244873546
2024-06-23: 4.768625807455284
2024-06-22: 4.768625807455284
2024-06-21: 4.768625807455284
2024-06-20: 4.7709086992722805
2024-06-19: 4.723036489455063
2024-06-18: 4.723036489455063
2024-06-17: 4.656989007983528
2024-06-16: 4.522563382690592
2024-06-15: 4.522563382690592
2024-06-14: 4.522563382690592
2024-06-13: 4.575317534893685
2024-06-12: 4.534513819391608
2024-06-11: 3.8690316228370247
2024-06-10: 3.095923349074943
2024-06-09: 2.941318973725157
2024-06-08: 2.941318973725157
2024-06-07: 2.941318973725157
2024-06-06: 2.9540391501275556
2024-06-05: 3.003581272090811
2024-06-04: 3.040159428830044
2024-06-03: 3.099376162193315
2024-06-02: 3.1288291726057045
2024-06-01: 3.1288291726057045
2024-05-31: 3.1288291726057045
2024-05-30: 3.166649900509512
2024-05-29: 3.2661025537881634
2024-05-28: 3.3083816378087194
2024-05-27: 3.26544937977812
2024-05-26: 3.26544937977812
2024-05-25: 3.26544937977812
2024-05-24: 3.26544937977812
2024-05-23: 3.2344672191753796
2024-05-22: 3.150005821900853
2024-05-21: 3.197844469019321
2024-05-20: 3.3057976465060954
2024-05-19: 3.338165753432748
2024-05-18: 3.338165753432748
2024-05-17: 3.338165753432748
2024-05-16: 3.4706395575201774
2024-05-15: 3.6277937061761536
2024-05-14: 3.656713983557635
2024-05-13: 3.7839512497155723
2024-05-12: 3.766160146700146
2024-05-11: 3.766160146700146
2024-05-10: 3.766160146700146
2024-05-09: 3.8301285619782535
2024-05-08: 3.9305477583731174
2024-05-07: 4.109518954594452
2024-05-06: 4.152987029546071
2024-05-05: 4.1845660426582265
2024-05-04: 4.1845660426582265
2024-05-03: 4.1845660426582265
2024-05-02: 3.4425120420581563
2024-05-01: 3.3935434123535706
2024-04-30: 3.3804118226204625
2024-04-29: 3.260408896968092
2024-04-28: 2.9986570131959835
2024-04-27: 2.9986570131959835
2024-04-26: 2.9986570131959835
2024-04-25: 3.064818902877952
2024-04-24: 3.1132221415305446
2024-04-23: 3.1173692689545804
2024-04-22: 3.1949475375485292
2024-04-21: 3.251077148617815
2024-04-20: 3.251077148617815
2024-04-19: 3.251077148617815
2024-04-18: 3.275728725553686
2024-04-17: 3.368535476607081
2024-04-16: 3.4258322642588594
2024-04-15: 3.2712447761722534
2024-04-14: 3.2083413063329154
2024-04-13: 3.2083413063329154
2024-04-12: 3.2083413063329154
2024-04-11: 3.1390767828847745
2024-04-10: 2.7956423993313737
2024-04-09: 2.815724461293993
2024-04-08: 2.9005636196918148
2024-04-07: 3.0216315553151056
2024-04-06: 3.0216315553151056
2024-04-05: 3.0216315553151056
2024-04-04: 3.134495914397168
2024-04-03: 3.1395182947542124
2024-04-02: 3.221086152026493
2024-04-01: 3.3317758867140124
2024-03-31: 3.4357471948482696
2024-03-30: 3.4357471948482696
2024-03-29: 3.4357471948482696
2024-03-28: 3.4357471948482696
2024-03-27: 3.4867895319674793
2024-03-26: 3.4587438613826302
2024-03-25: 3.584668520826718
2024-03-24: 3.6448820614736315
2024-03-23: 3.6448820614736315
2024-03-22: 3.6448820614736315
2024-03-21: 3.697541308718885
2024-03-20: 3.3856399347580686
2024-03-19: 3.3734238368123957
2024-03-18: 3.3602680306791353
2024-03-17: 3.2311016565227186
2024-03-16: 3.2311016565227186
2024-03-15: 3.2311016565227186
2024-03-14: 3.2732557158183244
2024-03-13: 3.282856625518344
2024-03-12: 3.34726997064092
2024-03-11: 3.374751292429381
2024-03-10: 3.3563674539368775
2024-03-09: 3.3563674539368775
2024-03-08: 3.3563674539368775
2024-03-07: 3.2520323276678464
2024-03-06: 3.331592889972976
2024-03-05: 3.3929008610553337
2024-03-04: 3.2365400214368485
2024-03-03: 3.038449820217169
2024-03-02: 3.038449820217169
2024-03-01: 3.038449820217169
2024-02-29: 3.015517914545488
2024-02-28: 3.0159562939238618
2024-02-27: 3.0202377857024065
2024-02-26: 2.9205097965519484
2024-02-25: 2.9844685240133995
2024-02-24: 2.9844685240133995
2024-02-23: 2.9844685240133995
2024-02-22: 3.0000359902570293
2024-02-21: 3.0297487971096615
2024-02-20: 3.0929717978293616
2024-02-19: 3.1458265012710123
2024-02-18: 3.1458265012710123
2024-02-17: 3.1458265012710123
2024-02-16: 3.1458265012710123
2024-02-15: 3.1456264155469933
2024-02-14: 3.1484579801243755
2024-02-13: 3.1553155329524416
2024-02-12: 3.120812523008417
2024-02-11: 3.2039856832147944
2024-02-10: 3.2039856832147944
2024-02-09: 3.2039856832147944
2024-02-08: 3.29888897643585
2024-02-07: 3.3860746511292468
2024-02-06: 3.4609502081850962
2024-02-05: 3.533979920097111
2024-02-04: 3.5464525126772637
2024-02-03: 3.5464525126772637
2024-02-02: 3.5464525126772637
2024-02-01: 3.204674614927434
2024-01-31: 3.2131144543697645
2024-01-30: 3.1796100694350242
2024-01-29: 3.094846454252225
2024-01-28: 3.1168964879897842
2024-01-27: 3.1168964879897842
2024-01-26: 3.1168964879897842
2024-01-25: 3.142163240599852
2024-01-24: 3.1435116001388876
2024-01-23: 3.230152831478504
2024-01-22: 3.332587029294882
2024-01-21: 3.302184127003964
2024-01-20: 3.302184127003964
2024-01-19: 3.302184127003964
2024-01-18: 3.303674811148698
2024-01-17: 3.0664413985267935
2024-01-16: 3.0490370839657146
2024-01-15: 2.9040260592149596
2024-01-14: 2.9040260592149596
2024-01-13: 2.9040260592149596
2024-01-12: 2.9040260592149596
2024-01-11: 3.0095161927448926
2024-01-10: 2.980123834801822
2024-01-09: 3.0207304470415974
2024-01-08: 3.037837182132604
2024-01-07: 2.935319299586205
2024-01-06: 2.935319299586205
2024-01-05: 2.935319299586205
2024-01-04: 2.964112547927492
2024-01-03: 2.9357906134042664
2024-01-02: 2.9752675880013717
2024-01-01: 2.5469566875663503
2023-12-31: 2.5469566875663503
2023-12-30: 2.5469566875663503
2023-12-29: 2.5469566875663503
2023-12-28: 2.5397907727469344
2023-12-27: 2.620303113239011
2023-12-26: 2.638554976410176
2023-12-25: 2.760895097322273
2023-12-24: 2.760895097322273
2023-12-23: 2.760895097322273
2023-12-22: 2.760895097322273
2023-12-21: 2.7876799423990577
2023-12-20: 2.729814433985036
2023-12-19: 2.7230238773016042
2023-12-18: 2.8518616098182847
2023-12-17: 2.829359450913073
2023-12-16: 2.829359450913073
2023-12-15: 2.829359450913073
2023-12-14: 2.9405160140236877
2023-12-13: 2.9035353457896935
2023-12-12: 2.8766416462315907
2023-12-11: 2.8697354617203055
2023-12-10: 2.7641786567271573
2023-12-09: 2.7641786567271573
2023-12-08: 2.7641786567271573
2023-12-07: 2.8003431670240166
2023-12-06: 2.8119102214997005
2023-12-05: 2.82664688287742
2023-12-04: 2.6660516251148834
2023-12-03: 2.582855706348859
2023-12-02: 2.582855706348859
2023-12-01: 2.582855706348859
2023-11-30: 2.6043120781895355
2023-11-29: 2.642631144867518
2023-11-28: 2.608597071780355
2023-11-27: 2.681473462639761
2023-11-26: 2.753110402827928
2023-11-25: 2.753110402827928
2023-11-24: 2.753110402827928
2023-11-23: 2.808202823471649
2023-11-22: 2.808202823471649
2023-11-21: 2.850038547881375
2023-11-20: 2.933881835374923
2023-11-19: 2.990707098207924
2023-11-18: 2.990707098207924
2023-11-17: 2.990707098207924
2023-11-16: 3.083089271507158
2023-11-15: 3.095865859984891
2023-11-14: 3.177322699950613
2023-11-13: 3.1699661766474874
2023-11-12: 3.247235134012638
2023-11-11: 3.247235134012638
2023-11-10: 3.247235134012638
2023-11-09: 3.162348742495107
2023-11-08: 3.2301342507808553
2023-11-07: 3.3373166833456387
2023-11-06: 3.330445041162891
2023-11-05: 3.3420364477358073
2023-11-04: 3.3420364477358073
2023-11-03: 3.3420364477358073
2023-11-02: 3.2785583292156515
2023-11-01: 3.2413416005398354
2023-10-31: 3.1784715975986897
2023-10-30: 3.1950833377833816
2023-10-29: 3.2167725586789424
2023-10-28: 3.2167725586789424
2023-10-27: 3.2167725586789424
2023-10-26: 3.3024171160802696
2023-10-25: 3.122705564962982
2023-10-24: 3.1509778679940803
2023-10-23: 3.2247249903386517
2023-10-22: 3.162855560811861
2023-10-21: 3.162855560811861
2023-10-20: 3.162855560811861
2023-10-19: 3.1919392988875535
2023-10-18: 3.236174186604276
2023-10-17: 3.2974843806056273
2023-10-16: 3.2533677903519025
2023-10-15: 3.308403918506302
2023-10-14: 3.308403918506302
2023-10-13: 3.308403918506302
2023-10-12: 3.2750009681204424
2023-10-11: 3.2762492324083903
2023-10-10: 3.357353853277602
2023-10-09: 3.481158719895075
2023-10-08: 3.5020635697194473
2023-10-07: 3.5020635697194473
2023-10-06: 3.5020635697194473
2023-10-05: 3.406074753557786
2023-10-04: 3.457665337095302
2023-10-03: 3.4775221872671445
2023-10-02: 3.522457639874335
2023-10-01: 3.5374231534673135
2023-09-30: 3.5374231534673135
2023-09-29: 3.5374231534673135
2023-09-28: 3.602155440278844
2023-09-27: 3.5442514664900258
2023-09-26: 3.5137984676250626
2023-09-25: 3.44833818495578
2023-09-24: 3.499381487459097
2023-09-23: 3.499381487459097
2023-09-22: 3.499381487459097
2023-09-21: 3.5292810507566683
2023-09-20: 3.6154166927004656
2023-09-19: 3.566888739257509
2023-09-18: 3.6513597348891875
2023-09-17: 3.6002779949468677
2023-09-16: 3.6002779949468677
2023-09-15: 3.6002779949468677
2023-09-14: 3.6736447738982165
2023-09-13: 3.764808216561648
2023-09-12: 3.802214377635042
2023-09-11: 3.6913342435077023
2023-09-10: 3.7504349397702033
2023-09-09: 3.7504349397702033
2023-09-08: 3.7504349397702033
2023-09-07: 3.835351508266432
2023-09-06: 3.4186164695446823
2023-09-05: 3.0564215390741265
2023-09-04: 3.1115012950277703
2023-09-03: 3.1115012950277703
2023-09-02: 3.1115012950277703
2023-09-01: 3.1115012950277703
2023-08-31: 3.195125307838494
2023-08-30: 3.3163265007300478
2023-08-29: 3.288086636651386
2023-08-28: 3.130821948584163
2023-08-27: 3.216692399006375
2023-08-26: 3.216692399006375
2023-08-25: 3.216692399006375
2023-08-24: 3.211177746562429
2023-08-23: 3.0700242116973295
2023-08-22: 2.9780221529212727
2023-08-21: 3.0673308035264673
2023-08-20: 3.1217301456663464
2023-08-19: 3.1217301456663464
2023-08-18: 3.1217301456663464
2023-08-17: 3.1233425029916724
2023-08-16: 3.057472732251025
2023-08-15: 3.1377009084175738
2023-08-14: 3.194475376772731
2023-08-13: 3.259414273197336
2023-08-12: 3.259414273197336
2023-08-11: 3.259414273197336
2023-08-10: 3.352897660868041
2023-08-09: 3.371855621419366
2023-08-08: 3.3338596957586124
2023-08-07: 3.386247994047957
2023-08-06: 3.2082602611721556
2023-08-05: 3.2082602611721556
2023-08-04: 3.2082602611721556
2023-08-03: 2.753346432676873
2023-08-02: 2.821768266599425
2023-08-01: 2.75359648211919
2023-07-31: 2.855415424078413
2023-07-30: 2.9817546289471357
2023-07-29: 2.9817546289471357
2023-07-28: 2.9817546289471357
2023-07-27: 2.9524379447815274
2023-07-26: 2.8268019734154053
2023-07-25: 2.8682546174358703
2023-07-24: 2.9606875597941626
2023-07-23: 2.963129788730122
2023-07-22: 2.963129788730122
2023-07-21: 2.963129788730122
2023-07-20: 2.90734755352348
2023-07-19: 2.8298270380562034
2023-07-18: 2.6242094337750976
2023-07-17: 2.68117962189223
2023-07-16: 2.612054713288152
2023-07-15: 2.612054713288152
2023-07-14: 2.612054713288152
2023-07-13: 2.6954005606509237
2023-07-12: 2.795017822773884
2023-07-11: 2.7354099352298293
2023-07-10: 2.741005419740027
2023-07-09: 2.675722512652489
2023-07-08: 2.675722512652489
2023-07-07: 2.675722512652489
2023-07-06: 2.6972090745897925
2023-07-05: 2.6907621004802396
2023-07-04: 2.7187151528807405
2023-07-03: 2.7187151528807405
2023-07-02: 2.7601943815054524
2023-07-01: 2.7601943815054524
2023-06-30: 2.7601943815054524
2023-06-29: 2.601564225679855
2023-06-28: 2.715962841451849
2023-06-27: 2.750406953944889
2023-06-26: 2.7252964711826997
2023-06-25: 2.7210100591425017
2023-06-24: 2.7210100591425017
2023-06-23: 2.7210100591425017
2023-06-22: 2.7368763443269537
2023-06-21: 2.6909994747727795
2023-06-20: 2.684074848993784
2023-06-19: 2.7623392788355896
2023-06-18: 2.7623392788355896
2023-06-17: 2.7623392788355896
2023-06-16: 2.7623392788355896
2023-06-15: 2.768488720540107
2023-06-14: 2.7735937045186563
2023-06-13: 2.8071601759912665
2023-06-12: 2.89337633139995
2023-06-11: 2.893676722328703
2023-06-10: 2.893676722328703
2023-06-09: 2.893676722328703
2023-06-08: 2.990340783139998
2023-06-07: 2.963962398973694
2023-06-06: 2.8968657469768857
2023-06-05: 2.9156391186714012
2023-06-04: 2.615728975159486
2023-06-03: 2.615728975159486
2023-06-02: 2.615728975159486
2023-06-01: 2.6257724220907286
2023-05-31: 2.585762643562393
2023-05-30: 2.588190286111804
2023-05-29: 2.517221537361997
2023-05-28: 2.517221537361997
2023-05-27: 2.517221537361997
2023-05-26: 2.517221537361997
2023-05-25: 2.499965846216095
2023-05-24: 2.5246218689908995
2023-05-23: 2.574690808781121
2023-05-22: 2.5512352718445332
2023-05-21: 2.6177616033395914
2023-05-20: 2.6177616033395914
2023-05-19: 2.6177616033395914
2023-05-18: 2.709131707330011
2023-05-17: 2.7157396623770587
2023-05-16: 2.7342355598950014
2023-05-15: 2.842909797528394
2023-05-14: 2.929599060828606
2023-05-13: 2.929599060828606
2023-05-12: 2.929599060828606
2023-05-11: 2.9228226905008454
2023-05-10: 2.9643287380232004
2023-05-09: 3.0211490128679306
2023-05-08: 3.10658174153315
2023-05-07: 3.213735793255394
2023-05-06: 3.213735793255394
2023-05-05: 3.213735793255394
2023-05-04: 2.8162713086373077
2023-05-03: 2.795037238523341
2023-05-02: 2.7252024772742445
2023-05-01: 2.7219614452293017
2023-04-30: 2.7942270819980006
2023-04-29: 2.7942270819980006
2023-04-28: 2.7942270819980006
2023-04-27: 2.8599305597629154
2023-04-26: 2.7163039257811237
2023-04-25: 2.7373787838316472
2023-04-24: 2.752498842419395
2023-04-23: 2.8346882858019122
2023-04-22: 2.8346882858019122
2023-04-21: 2.8346882858019122
2023-04-20: 2.8891148065448893
2023-04-19: 2.93636102844554
2023-04-18: 2.9637565745077614
2023-04-17: 3.026590349758583
2023-04-16: 3.1563784262734016
2023-04-15: 3.1563784262734016
2023-04-14: 3.1563784262734016
2023-04-13: 3.2097897449397887
2023-04-12: 3.0248939069923226
2023-04-11: 3.0848571675886793
2023-04-10: 3.182007046632098
2023-04-09: 3.079817659788998
2023-04-08: 3.079817659788998
2023-04-07: 3.079817659788998
2023-04-06: 3.079817659788998
2023-04-05: 3.0924919561392543
2023-04-04: 3.0402357543991725
2023-04-03: 3.1430445595855034
2023-04-02: 3.228005386884664
2023-04-01: 3.228005386884664
2023-03-31: 3.228005386884664
2023-03-30: 3.2422314464287023
2023-03-29: 3.362851431134827
2023-03-28: 3.3639635881794345
2023-03-27: 3.432584739846345
2023-03-26: 3.476940094409098
2023-03-25: 3.476940094409098
2023-03-24: 3.476940094409098
2023-03-23: 3.5557683059351795
2023-03-22: 3.5361170681520364
2023-03-21: 3.4801076296101447
2023-03-20: 3.5311494235829537
2023-03-19: 3.5247551786106546
2023-03-18: 3.5247551786106546
2023-03-17: 3.5247551786106546
2023-03-16: 3.6095328597997245
2023-03-15: 3.522050546551834
2023-03-14: 3.5407138317624196
2023-03-13: 3.563086516512836
2023-03-12: 3.4250637556836265
2023-03-11: 3.4250637556836265
2023-03-10: 3.4250637556836265
2023-03-09: 3.436266597268344
2023-03-08: 3.3740917796692935
2023-03-07: 3.491974947241699
2023-03-06: 3.540899975733478
2023-03-05: 3.4140476493998633
2023-03-04: 3.4140476493998633
2023-03-03: 3.4140476493998633
2023-03-02: 3.282743017228793
2023-03-01: 3.3223897232125124
2023-02-28: 3.39614570244225
2023-02-27: 3.486939356796909
2023-02-26: 3.5688065476396766
2023-02-25: 3.5688065476396766
2023-02-24: 3.5688065476396766
2023-02-23: 3.5645490041502153
2023-02-22: 3.6039058711723855
2023-02-21: 3.6697739883580383
2023-02-20: 3.638437100078457
2023-02-19: 3.638437100078457
2023-02-18: 3.638437100078457
2023-02-17: 3.638437100078457
2023-02-16: 3.701659738872156
2023-02-15: 3.760653818077731
2023-02-14: 3.8514576884048717
2023-02-13: 3.9212175751333365
2023-02-12: 3.9698289359317713
2023-02-11: 3.9698289359317713
2023-02-10: 3.9698289359317713
2023-02-09: 4.114600562290282
2023-02-08: 4.135358386008953
2023-02-07: 4.190238537074396
2023-02-06: 4.16538034999924
2023-02-05: 4.204417492779292
2023-02-04: 4.204417492779292
2023-02-03: 4.204417492779292
2023-02-02: 3.8054785796135975
2023-02-01: 3.663280243185717
2023-01-31: 3.544939593146692
2023-01-30: 3.661810442552977
2023-01-29: 3.710519388987936
2023-01-28: 3.710519388987936
2023-01-27: 3.710519388987936
2023-01-26: 3.6820413236494405
2023-01-25: 3.784499908709221
2023-01-24: 3.7942359936065095
2023-01-23: 3.8697717786116073
2023-01-22: 3.7552093523574817
2023-01-21: 3.7552093523574817
2023-01-20: 3.7552093523574817
2023-01-19: 3.756641991026196
2023-01-18: 3.8580292510146643
2023-01-17: 3.884011831989824
2023-01-16: 3.94376261866481
2023-01-15: 3.94376261866481
2023-01-14: 3.94376261866481
2023-01-13: 3.94376261866481
2023-01-12: 4.000545187031491
2023-01-11: 4.094977195481698
2023-01-10: 4.179276474433754
2023-01-09: 4.26325189008019
2023-01-08: 4.304518108335718
2023-01-07: 4.304518108335718
2023-01-06: 4.304518108335718
2023-01-05: 4.227183094992122
2023-01-04: 4.324677106100348
2023-01-03: 4.385798659955261
2023-01-02: 4.214115548011596
2023-01-01: 4.214115548011596
2022-12-31: 4.214115548011596
2022-12-30: 4.214115548011596
2022-12-29: 4.347667461191229
2022-12-28: 4.346265149754742
2022-12-27: 4.290294721711143
2022-12-26: 4.382811730980526
2022-12-25: 4.382811730980526
2022-12-24: 4.382811730980526
2022-12-23: 4.382811730980526
2022-12-22: 4.509673929703759
2022-12-21: 4.467027824231302
2022-12-20: 4.469512180022485
2022-12-19: 4.559172643855494
2022-12-18: 4.616398534654291
2022-12-17: 4.616398534654291
2022-12-16: 4.616398534654291
2022-12-15: 4.67500017831554
2022-12-14: 4.491522472136219
2022-12-13: 4.421007912700279
2022-12-12: 4.32767253690916
2022-12-11: 4.4003710464522365
2022-12-10: 4.4003710464522365
2022-12-09: 4.4003710464522365
2022-12-08: 4.385624594331595
2022-12-07: 4.5278328139332515
2022-12-06: 4.621223510247374
2022-12-05: 4.569762352823068
2022-12-04: 4.531740491609314
2022-12-03: 4.531740491609314
2022-12-02: 4.531740491609314
2022-12-01: 4.679138719120026
2022-11-30: 4.848461105371583
2022-11-29: 4.603446588575911
2022-11-28: 4.620207128001992
2022-11-27: 4.617833352477608
2022-11-26: 4.617833352477608
2022-11-25: 4.617833352477608
2022-11-24: 4.674278097193258
2022-11-23: 4.674278097193258
2022-11-22: 4.845495681515273
2022-11-21: 4.954244508052567
2022-11-20: 5.0653091730796636
2022-11-19: 5.0653091730796636
2022-11-18: 5.0653091730796636
2022-11-17: 5.2484533438677285
2022-11-16: 5.2490228743059815
2022-11-15: 5.444784402075892
2022-11-14: 5.461971791777731
2022-11-13: 5.666550904397348
2022-11-12: 5.666550904397348
2022-11-11: 5.666550904397348
2022-11-10: 5.6758337233519995
2022-11-09: 5.2047660763179735
2022-11-08: 5.2337422724846085
2022-11-07: 5.338319883434816
2022-11-06: 5.485735377115142
2022-11-05: 5.485735377115142
2022-11-04: 5.485735377115142
2022-11-03: 5.2806655697891065
2022-11-02: 5.212643957091314
2022-11-01: 5.072181046696241
2022-10-31: 4.985100664056233
2022-10-30: 5.080104449027806
2022-10-29: 5.080104449027806
2022-10-28: 5.080104449027806
2022-10-27: 4.511851283367362
2022-10-26: 4.4647344717629345
2022-10-25: 4.48346340303188
2022-10-24: 4.591985860063143
2022-10-23: 4.625791478299182
2022-10-22: 4.625791478299182
2022-10-21: 4.625791478299182
2022-10-20: 4.588947706967974
2022-10-19: 4.697277776005402
2022-10-18: 4.798083589691004
2022-10-17: 4.707286650264244
2022-10-16: 4.728065540813802
2022-10-15: 4.728065540813802
2022-10-14: 4.728065540813802
2022-10-13: 4.613758777614633
2022-10-12: 4.272423759733834
2022-10-11: 4.43494108644896
2022-10-10: 4.539731030220878
2022-10-09: 4.638235045880801
2022-10-08: 4.638235045880801
2022-10-07: 4.638235045880801
2022-10-06: 4.543450563950117
2022-10-05: 4.717754786240536
2022-10-04: 4.750661739176669
2022-10-03: 4.83140704329794
2022-10-02: 4.7967878473714425
2022-10-01: 4.7967878473714425
2022-09-30: 4.7967878473714425
2022-09-29: 4.78064934218015
2022-09-28: 4.456683459549111
2022-09-27: 4.276946008216036
2022-09-26: 4.245739452792428
2022-09-25: 4.260461424984752
2022-09-24: 4.260461424984752
2022-09-23: 4.260461424984752
2022-09-22: 4.272543365944071
2022-09-21: 4.3323707934853335
2022-09-20: 4.277487971778773
2022-09-19: 4.228955260067982
2022-09-18: 4.141953531473145
2022-09-17: 4.141953531473145
2022-09-16: 4.141953531473145
2022-09-15: 4.158510614360851
2022-09-14: 4.181626022751837
2022-09-13: 4.239745133651668
2022-09-12: 3.8062102429834694
2022-09-11: 3.578705421820363
2022-09-10: 3.578705421820363
2022-09-09: 3.578705421820363
2022-09-08: 3.600265214397677
2022-09-07: 3.5993163368511563
2022-09-06: 3.6451140492276473
2022-09-05: 3.668760131228815
2022-09-04: 3.668760131228815
2022-09-03: 3.668760131228815
2022-09-02: 3.668760131228815
2022-09-01: 3.5439517467085806
2022-08-31: 3.5333857199241017
2022-08-30: 3.5454161282651993
2022-08-29: 3.4526527255524297
2022-08-28: 3.4312901180687763
2022-08-27: 3.4312901180687763
2022-08-26: 3.4312901180687763
2022-08-25: 3.129634919120412
2022-08-24: 3.1732842157729255
2022-08-23: 3.276926826557516
2022-08-22: 3.3734382020297975
2022-08-21: 3.3021806523895973
2022-08-20: 3.3021806523895973
2022-08-19: 3.3021806523895973
2022-08-18: 3.34173590839726
2022-08-17: 3.464377604311647
2022-08-16: 3.4605289084114217
2022-08-15: 3.5719194188303387
2022-08-14: 3.6926342930589477
2022-08-13: 3.6926342930589477
2022-08-12: 3.6926342930589477
2022-08-11: 3.6987923919901435
2022-08-10: 3.771875330283405
2022-08-09: 3.728248875672278
2022-08-08: 3.8209656161372725
2022-08-07: 3.842280294387307
2022-08-06: 3.842280294387307
2022-08-05: 3.842280294387307
2022-08-04: 3.9226248596430815
2022-08-03: 4.016234821057438
2022-08-02: 3.828982730495638
2022-08-01: 3.9138820974690267
2022-07-31: 4.011345076375898
2022-07-30: 4.011345076375898
2022-07-29: 4.011345076375898
2022-07-28: 3.8463400295944057
2022-07-27: 3.8986406312308084
2022-07-26: 3.7664428933586
2022-07-25: 3.88348246262185
2022-07-24: 3.9740826502673783
2022-07-23: 3.9740826502673783
2022-07-22: 3.9740826502673783
2022-07-21: 4.0633570094146725
2022-07-20: 4.102186826054967
2022-07-19: 4.165118041826117
2022-07-18: 4.15974422300896
2022-07-17: 4.112480527023491
2022-07-16: 4.112480527023491
2022-07-15: 4.112480527023491
2022-07-14: 4.228236175917447
2022-07-13: 4.123652278277193
2022-07-12: 4.114333860020418
2022-07-11: 4.160855880877578
2022-07-10: 4.235089426837154
2022-07-09: 4.235089426837154
2022-07-08: 4.235089426837154
2022-07-07: 4.368571613565434
2022-07-06: 4.43087517495428
2022-07-05: 4.5424680010052825
2022-07-04: 4.538972476956204
2022-07-03: 4.538972476956204
2022-07-02: 4.538972476956204
2022-07-01: 4.538972476956204
2022-06-30: 4.633241624693806
2022-06-29: 4.577911724316484
2022-06-28: 4.628421598384372
2022-06-27: 4.524457992632148
2022-06-26: 4.682461477694326
2022-06-25: 4.682461477694326
2022-06-24: 4.682461477694326
2022-06-23: 4.768163310691845
2022-06-22: 4.890617485798253
2022-06-21: 4.976493734186118
2022-06-20: 4.944550321564629
2022-06-19: 4.944550321564629
2022-06-18: 4.944550321564629
2022-06-17: 4.944550321564629
2022-06-16: 5.078311627445322
2022-06-15: 4.987084875567843
2022-06-14: 4.98008718351674
2022-06-13: 5.181434101017941
2022-06-12: 5.150925835400158
2022-06-11: 5.150925835400158
2022-06-10: 5.150925835400158
2022-06-09: 5.1263678272844295
2022-06-08: 5.1112305321343925
2022-06-07: 5.322666586187758
2022-06-06: 5.362597339916324
2022-06-05: 5.498351679679127
2022-06-04: 5.498351679679127
2022-06-03: 5.498351679679127
2022-06-02: 5.412290332254164
2022-06-01: 5.496065105919538
2022-05-31: 5.612676599139439
2022-05-30: 5.7563568662985425
2022-05-29: 5.7563568662985425
2022-05-28: 5.7563568662985425
2022-05-27: 5.7563568662985425
2022-05-26: 5.75423845656875
2022-05-25: 5.653925536551745
2022-05-24: 5.828681030417827
2022-05-23: 5.841174668973739
2022-05-22: 5.862922748374433
2022-05-21: 5.862922748374433
2022-05-20: 5.862922748374433
2022-05-19: 5.703855882924132
2022-05-18: 5.761043118767854
2022-05-17: 5.499877492978188
2022-05-16: 5.603964162454181
2022-05-15: 5.783170389729615
2022-05-14: 5.783170389729615
2022-05-13: 5.783170389729615
2022-05-12: 5.810263732108769
2022-05-11: 5.676556402094417
2022-05-10: 5.386268924754416
2022-05-09: 5.447683861536337
2022-05-08: 5.4301180807849505
2022-05-07: 5.4301180807849505
2022-05-06: 5.4301180807849505
2022-05-05: 5.451165804468923
2022-05-04: 5.036928842801359
2022-05-03: 4.880728396364673
2022-05-02: 4.925607925139151
2022-05-01: 4.93102006105182
2022-04-30: 4.93102006105182
2022-04-29: 4.93102006105182
2022-04-28: 4.636406495140338
2022-04-27: 4.394427204029395
2022-04-26: 4.4003938407687455
2022-04-25: 4.275046311614021
2022-04-24: 4.249240047529424
2022-04-23: 4.249240047529424
2022-04-22: 4.249240047529424
2022-04-21: 4.096452618186429
2022-04-20: 3.988386192956229
2022-04-19: 4.085854922842772
2022-04-18: 4.105733356164933
2022-04-17: 4.193404172212199
2022-04-16: 4.193404172212199
2022-04-15: 4.193404172212199
2022-04-14: 4.193404172212199
2022-04-13: 4.0468622443493905
2022-04-12: 4.036634878422175
2022-04-11: 4.036918261707368
2022-04-10: 4.001832967412709
2022-04-09: 4.001832967412709
2022-04-08: 4.001832967412709
2022-04-07: 4.088286762085358
2022-04-06: 4.138472483280865
2022-04-05: 4.085595634567434
2022-04-04: 4.097170394688945
2022-04-03: 4.09758867396507
2022-04-02: 4.09758867396507
2022-04-01: 4.09758867396507
2022-03-31: 4.191409567859676
2022-03-30: 4.240491165284327
2022-03-29: 4.347563430930421
2022-03-28: 4.425226128382682
2022-03-27: 4.484764471044105
2022-03-26: 4.484764471044105
2022-03-25: 4.484764471044105
2022-03-24: 4.639240914091265
2022-03-23: 4.700181221629941
2022-03-22: 4.685992874136312
2022-03-21: 4.70685734821403
2022-03-20: 4.817424995078174
2022-03-19: 4.817424995078174
2022-03-18: 4.817424995078174
2022-03-17: 4.832586451747265
2022-03-16: 4.950567861699786
2022-03-15: 4.914226634291179
2022-03-14: 4.901443824560539
2022-03-13: 4.929848277450215
2022-03-12: 4.929848277450215
2022-03-11: 4.929848277450215
2022-03-10: 4.9491399060728325
2022-03-09: 4.805012285171387
2022-03-08: 4.725094738747529
2022-03-07: 4.5554486259382045
2022-03-06: 4.455580788664407
2022-03-05: 4.455580788664407
2022-03-04: 4.455580788664407
2022-03-03: 4.487332921668034
2022-03-02: 4.579508942829747
2022-03-01: 4.599711417241166
2022-02-28: 4.6049021598541096
2022-02-27: 4.733982340823076
2022-02-26: 4.733982340823076
2022-02-25: 4.733982340823076
2022-02-24: 4.7781156014733766
2022-02-23: 4.328670629527864
2022-02-22: 4.179733857839033
2022-02-21: 4.113459132719477
2022-02-20: 4.113459132719477
2022-02-19: 4.113459132719477
2022-02-18: 4.113459132719477
2022-02-17: 4.10233048145868
2022-02-16: 4.110674435310677
2022-02-15: 4.179148324041878
2022-02-14: 4.194156116660265
2022-02-13: 4.2893816867079835
2022-02-12: 4.2893816867079835
2022-02-11: 4.2893816867079835
2022-02-10: 4.239827884283912
2022-02-09: 4.209805697272172
2022-02-08: 4.396597752818683
2022-02-07: 4.439626046992031
2022-02-06: 4.55524058072566
2022-02-05: 4.55524058072566
2022-02-04: 4.55524058072566
2022-02-03: 4.648121951391256
2022-02-02: 4.695833650288175
2022-02-01: 4.8652855874158965
2022-01-31: 5.049276949385244
2022-01-30: 5.024818566301107
2022-01-29: 5.024818566301107
2022-01-28: 5.024818566301107
2022-01-27: 4.574328153902678
2022-01-26: 4.508071124664476
2022-01-25: 4.3607616555084485
2022-01-24: 4.264539860324743
2022-01-23: 4.012761092816061
2022-01-22: 4.012761092816061
2022-01-21: 4.012761092816061
2022-01-20: 4.018367702347979
2022-01-19: 3.9138554220358315
2022-01-18: 3.828376994205643
2022-01-17: 3.847625861728502
2022-01-16: 3.847625861728502
2022-01-15: 3.847625861728502
2022-01-14: 3.847625861728502
2022-01-13: 3.9413032741661596
2022-01-12: 3.8812491881550972
2022-01-11: 4.00233220317477
2022-01-10: 3.9823200936705234
2022-01-09: 3.9630234029238975
2022-01-08: 3.9630234029238975
2022-01-07: 3.9630234029238975
2022-01-06: 4.033992627610506
2022-01-05: 4.0690582129449115
2022-01-04: 3.9661872645795166
2022-01-03: 3.984003813789202
2022-01-02: 3.8911334449806736
2022-01-01: 3.8911334449806736
2021-12-31: 3.8911334449806736
2021-12-30: 4.0423085312710745
2021-12-29: 4.166757519540614
2021-12-28: 4.300028797065492
2021-12-27: 4.4202388091208835
2021-12-26: 4.44891611983083
2021-12-25: 4.44891611983083
2021-12-24: 4.44891611983083
2021-12-23: 4.44891611983083
2021-12-22: 4.672334420046477
2021-12-21: 4.752747321572423
2021-12-20: 4.811519982452828
2021-12-19: 4.9048984076885285
2021-12-18: 4.9048984076885285
2021-12-17: 4.9048984076885285
2021-12-16: 4.997939768621119
2021-12-15: 4.601001362544616
2021-12-14: 4.414196737087823
2021-12-13: 4.337870222589945
2021-12-12: 4.175193979864047
2021-12-11: 4.175193979864047
2021-12-10: 4.175193979864047
2021-12-09: 4.115078807874489
2021-12-08: 4.218813351047415
2021-12-07: 4.1477592740162175
2021-12-06: 3.9960237679227424
2021-12-05: 3.849161250558205
2021-12-04: 3.849161250558205
2021-12-03: 3.849161250558205
2021-12-02: 3.751169081646448
2021-12-01: 3.5155094112742242
2021-11-30: 3.3519773935385127
2021-11-29: 3.1886476982280048
2021-11-28: 3.104520945189032
2021-11-27: 3.104520945189032
2021-11-26: 3.104520945189032
2021-11-25: 2.9236528220823845
2021-11-24: 2.9236528220823845
2021-11-23: 2.960552706827402
2021-11-22: 2.9822380586298944
2021-11-21: 2.8242929614412553
2021-11-20: 2.8242929614412553
2021-11-19: 2.8242929614412553
2021-11-18: 2.703841680790095
2021-11-17: 2.4891066622376568
2021-11-16: 2.3789673930389545
2021-11-15: 2.400287648277781
2021-11-14: 2.4006774911784565
2021-11-13: 2.4006774911784565
2021-11-12: 2.4006774911784565
2021-11-11: 2.3657346080054884
2021-11-10: 2.416137478224274
2021-11-09: 2.3793750944214045
2021-11-08: 2.459428564428011
2021-11-07: 2.542637419547451
2021-11-06: 2.542637419547451
2021-11-05: 2.542637419547451
2021-11-04: 2.5773170736470763
2021-11-03: 2.641207774683154
2021-11-02: 2.682964132993232
2021-11-01: 2.670060512869291
2021-10-31: 2.7253211447982033
2021-10-30: 2.7253211447982033
2021-10-29: 2.7253211447982033
2021-10-28: 2.4721091579758574
2021-10-27: 2.3377116249210896
2021-10-26: 2.424530839089173
2021-10-25: 2.445858486474865
2021-10-24: 2.502671845239899
2021-10-23: 2.502671845239899
2021-10-22: 2.502671845239899
2021-10-21: 2.579663970174176
2021-10-20: 2.645296285176867
2021-10-19: 2.7265275327507568
2021-10-18: 2.739542251058992
2021-10-17: 2.6737935004854374
2021-10-16: 2.6737935004854374
2021-10-15: 2.6737935004854374
2021-10-14: 2.775323381043595
2021-10-13: 2.7657555707940027
2021-10-12: 2.8051440485847072
2021-10-11: 2.8551110123584835
2021-10-10: 2.849437615662122
2021-10-09: 2.849437615662122
2021-10-08: 2.849437615662122
2021-10-07: 2.947299788601588
2021-10-06: 3.0075260044945655
2021-10-05: 2.954818473832496
2021-10-04: 2.94930194233803
2021-10-03: 2.8468053651363534
2021-10-02: 2.8468053651363534
2021-10-01: 2.8468053651363534
2021-09-30: 2.7793604112675463
2021-09-29: 2.7602687596702182
2021-09-28: 2.7819805945478926
2021-09-27: 2.7192545207506784
2021-09-26: 2.6954909971085157
2021-09-25: 2.6954909971085157
2021-09-24: 2.6954909971085157
2021-09-23: 2.7598571371671947
2021-09-22: 2.864807829698693
2021-09-21: 2.8598594117374683
2021-09-20: 2.943910665805271
2021-09-19: 2.8094059552171116
2021-09-18: 2.8094059552171116
2021-09-17: 2.8094059552171116
2021-09-16: 2.7955881448214086
2021-09-15: 2.875581624825465
2021-09-14: 2.8661325727881355
2021-09-13: 2.7730411389273657
2021-09-12: 2.7860296648798557
2021-09-11: 2.7860296648798557
2021-09-10: 2.7860296648798557
2021-09-09: 2.4868279555385726
2021-09-08: 2.5163866219272246
2021-09-07: 2.479544206773889
2021-09-06: 2.447416937199356
2021-09-05: 2.447416937199356
2021-09-04: 2.447416937199356
2021-09-03: 2.447416937199356
2021-09-02: 2.521493987938452
2021-09-01: 2.5416658546787825
2021-08-31: 2.4996776782511607
2021-08-30: 2.5559228361727375
2021-08-29: 2.3806899859698523
2021-08-28: 2.3806899859698523
2021-08-27: 2.3806899859698523
2021-08-26: 2.420784485645017
2021-08-25: 2.488168024319835
2021-08-24: 2.490404187528389
2021-08-23: 2.5558965696966753
2021-08-22: 2.5807423683577344
2021-08-21: 2.5807423683577344
2021-08-20: 2.5807423683577344
2021-08-19: 2.6468204606208166
2021-08-18: 2.5848381443269135
2021-08-17: 2.433231551228635
2021-08-16: 2.4255137347792433
2021-08-15: 2.247775507385931
2021-08-14: 2.247775507385931
2021-08-13: 2.247775507385931
2021-08-12: 2.3382353283992154
2021-08-11: 2.272835240959123
2021-08-10: 2.36468158793245
2021-08-09: 2.365679687055716
2021-08-08: 2.467217944773993
2021-08-07: 2.467217944773993
2021-08-06: 2.467217944773993
2021-08-05: 2.5533302393612174
2021-08-04: 2.6318518766855625
2021-08-03: 2.7310535225776214
2021-08-02: 2.726159240229039
2021-08-01: 2.8192494415330693
2021-07-31: 2.8192494415330693
2021-07-30: 2.8192494415330693
2021-07-29: 2.87689462076952
2021-07-28: 2.9619872133123852
2021-07-27: 2.839887059281305
2021-07-26: 2.773498932197569
2021-07-25: 2.838033709648971
2021-07-24: 2.838033709648971
2021-07-23: 2.838033709648971
2021-07-22: 2.928911723466903
2021-07-21: 2.948006115805083
2021-07-20: 3.0909586355928913
2021-07-19: 2.9474723896923543
2021-07-18: 2.7791060799177347
2021-07-17: 2.7791060799177347
2021-07-16: 2.7791060799177347
2021-07-15: 2.6743658681949523
2021-07-14: 2.656950965192945
2021-07-13: 2.5269293433537148
2021-07-12: 2.3886262172640587
2021-07-11: 2.4037799614073845
2021-07-10: 2.4037799614073845
2021-07-09: 2.4037799614073845
2021-07-08: 2.339038556839786
2021-07-07: 2.1480549176232095
2021-07-06: 2.058428846463989
2021-07-05: 1.9039686129105682
2021-07-04: 1.9039686129105682
2021-07-03: 1.9039686129105682
2021-07-02: 1.9039686129105682
2021-07-01: 1.7843231911546584
2021-06-30: 1.8280004850751308
2021-06-29: 1.8901248770449455
2021-06-28: 1.8481555080359777
2021-06-27: 1.7890786958807794
2021-06-26: 1.7890786958807794
2021-06-25: 1.7890786958807794
2021-06-24: 2.00987583450868
2021-06-23: 2.142249819672509
2021-06-22: 2.745192069202101
2021-06-21: 3.119202903952285


ATR: Averages true range to measure volatility. Usage: Set stop-loss levels and adjust position sizes based on current market volatility. Tips: It's a reactive measure, so use it as part of a broader risk management strategy.