## atr values from 2021-06-21 to 2026-06-20:

2026-06-20: 7.680558402390428
2026-06-19: 7.680558402390428
2026-06-18: 7.680558402390428
2026-06-17: 7.5244481675682975
2026-06-16: 7.33402110353509
2026-06-15: 7.585869068530576
2026-06-14: 7.457090188660934
2026-06-13: 7.457090188660934
2026-06-12: 7.457090188660934
2026-06-11: 7.279173720676318
2026-06-10: 7.303725028892404
2026-06-09: 7.347088070102277
2026-06-08: 7.140710323241157
2026-06-07: 7.223842074367883
2026-06-06: 7.223842074367883
2026-06-05: 7.223842074367883
2026-06-04: 6.964137149048826
2026-06-03: 7.052917117545368
2026-06-02: 6.873911540123978
2026-06-01: 6.872672839484476
2026-05-31: 6.636724408567416
2026-05-30: 6.636724408567416
2026-05-29: 6.636724408567416
2026-05-28: 6.754165874490872
2026-05-27: 6.7306403603291125
2026-05-26: 6.700689994416928
2026-05-25: 6.659975342545153
2026-05-24: 6.659975342545153
2026-05-23: 6.659975342545153
2026-05-22: 6.659975342545153
2026-05-21: 6.899202806545021
2026-05-20: 6.805295705726368
2026-05-19: 6.848780741984165
2026-05-18: 6.631765190586312
2026-05-17: 6.6557465649222785
2026-05-16: 6.6557465649222785
2026-05-15: 6.6557465649222785
2026-05-14: 6.680805025895867
2026-05-13: 6.875482805081367
2026-05-12: 6.825905404420559
2026-05-11: 6.861745408486564
2026-05-10: 6.993418601717501
2026-05-09: 6.993418601717501
2026-05-08: 6.993418601717501
2026-05-07: 7.219836356236635
2026-05-06: 7.302899564528876
2026-05-05: 7.434661351193357
2026-05-04: 7.505788396237081
2026-05-03: 7.480080093032963
2026-05-02: 7.480080093032963
2026-05-01: 7.480080093032963
2026-04-30: 7.241623400970595
2026-04-29: 6.435594337914246
2026-04-28: 6.299102251978563
2026-04-27: 6.438264714871145
2026-04-26: 6.640439111507868
2026-04-25: 6.640439111507868
2026-04-24: 6.640439111507868
2026-04-23: 6.4266268763203716
2026-04-22: 6.480982695983236
2026-04-21: 6.51567376649757
2026-04-20: 6.493033474797862
2026-04-19: 6.593266631212604
2026-04-18: 6.593266631212604
2026-04-17: 6.593266631212604
2026-04-16: 6.6019797776490305
2026-04-15: 6.663670295025278
2026-04-14: 6.927029125937679
2026-04-13: 6.514493421307284
2026-04-12: 6.688685222946306
2026-04-11: 6.688685222946306
2026-04-10: 6.688685222946306
2026-04-09: 6.681661103227034
2026-04-08: 6.230250184109282
2026-04-07: 5.761038518959635
2026-04-06: 5.828041528906651
2026-04-05: 6.017890830333967
2026-04-04: 6.017890830333967
2026-04-03: 6.017890830333967
2026-04-02: 6.017890830333967
2026-04-01: 5.918496831330212
2026-03-31: 5.959150480690348
2026-03-30: 5.699854222970015
2026-03-29: 5.795227108285619
2026-03-28: 5.795227108285619
2026-03-27: 5.795227108285619
2026-03-26: 5.59486043227033
2026-03-25: 5.5813878291787455
2026-03-24: 5.562263675188291
2026-03-23: 5.720899342510467
2026-03-22: 5.589429450813555
2026-03-21: 5.589429450813555
2026-03-20: 5.589429450813555
2026-03-19: 5.677848086828659
2026-03-18: 5.820760088474733
2026-03-17: 5.778511240112213
2026-03-16: 5.918397377422529
2026-03-15: 5.968273770111883
2026-03-14: 5.968273770111883
2026-03-13: 5.968273770111883
2026-03-12: 6.09352588028275
2026-03-11: 6.216104794150654
2026-03-10: 6.259651786278827
2026-03-09: 6.493471060553879
2026-03-08: 6.476814471837473
2026-03-07: 6.476814471837473
2026-03-06: 6.476814471837473
2026-03-05: 6.481953764893481
2026-03-04: 6.6051806019766355
2026-03-03: 6.43557929762147
2026-03-02: 6.415239478342952
2026-03-01: 6.405643031589885
2026-02-28: 6.405643031589885
2026-02-27: 6.405643031589885
2026-02-26: 6.503769043034299
2026-02-25: 6.565597665710613
2026-02-24: 6.837566810819357
2026-02-23: 6.816610364701493
2026-02-22: 6.8025034696785305
2026-02-21: 6.8025034696785305
2026-02-20: 6.8025034696785305
2026-02-19: 6.75500387742724
2026-02-18: 7.056927111763588
2026-02-17: 7.160536373140234
2026-02-16: 7.269807979292245
2026-02-15: 7.269807979292245
2026-02-14: 7.269807979292245
2026-02-13: 7.269807979292245
2026-02-12: 7.530562063636842
2026-02-11: 7.608297278342679
2026-02-10: 7.7258584665956045
2026-02-09: 7.8401560229202625
2026-02-08: 7.715553297369658
2026-02-07: 7.715553297369658
2026-02-06: 7.715553297369658
2026-02-05: 6.587518560027897
2026-02-04: 6.124250710002997
2026-02-03: 6.053808973377625
2026-02-02: 5.681024344001026
2026-02-01: 5.544179546319014
2026-01-31: 5.544179546319014
2026-01-30: 5.544179546319014
2026-01-29: 5.533731208761222
2026-01-28: 5.477095992998864
2026-01-27: 5.417641838614162
2026-01-26: 5.311306360680035
2026-01-25: 5.45756041441624
2026-01-24: 5.45756041441624
2026-01-23: 5.45756041441624
2026-01-22: 5.407372707036601
2026-01-21: 5.452554659561054
2026-01-20: 5.455059004993034
2026-01-19: 5.122371330046587
2026-01-18: 5.122371330046587
2026-01-17: 5.122371330046587
2026-01-16: 5.122371330046587
2026-01-15: 5.273322689118678
2026-01-14: 5.369732971845353
2026-01-13: 5.292019747924805
2026-01-12: 5.129097908372147
2026-01-11: 5.2944134607439235
2026-01-10: 5.2944134607439235
2026-01-09: 5.2944134607439235
2026-01-08: 5.269368717940571
2026-01-07: 5.301627380588644
2026-01-06: 5.265599562659163
2026-01-05: 4.8160314250512135
2026-01-04: 4.609572303901306
2026-01-03: 4.609572303901306
2026-01-02: 4.609572303901306
2026-01-01: 4.13646172992256
2025-12-31: 4.13646172992256
2025-12-30: 4.233881064841481
2025-12-29: 4.3618713525816935
2025-12-28: 4.55663054654531
2025-12-27: 4.55663054654531
2025-12-26: 4.55663054654531
2025-12-25: 4.767908833403961
2025-12-24: 4.767908833403961
2025-12-23: 5.01005604234369
2025-12-22: 5.086213870796209
2025-12-21: 5.26438501365193
2025-12-20: 5.26438501365193
2025-12-19: 5.26438501365193
2025-12-18: 5.396260549182247
2025-12-17: 5.199050479497949
2025-12-16: 5.275900751133009
2025-12-15: 5.487123979735791
2025-12-14: 5.414595618501524
2025-12-13: 5.414595618501524
2025-12-12: 5.414595618501524
2025-12-11: 5.434179615147074
2025-12-10: 5.589116649470284
2025-12-09: 5.672894853275691
2025-12-08: 5.843117017845579
2025-12-07: 5.941818514711102
2025-12-06: 5.941818514711102
2025-12-05: 5.941818514711102
2025-12-04: 6.191958212657627
2025-12-03: 6.152878309920353
2025-12-02: 6.333099906176248
2025-12-01: 6.403338501347858
2025-11-30: 6.622825843624016
2025-11-29: 6.622825843624016
2025-11-28: 6.622825843624016
2025-11-27: 6.8145824759009805
2025-11-26: 6.8145824759009805
2025-11-25: 7.109550687313433
2025-11-24: 7.139516030898844
2025-11-23: 7.177940387918106
2025-11-22: 7.177940387918106
2025-11-21: 7.177940387918106
2025-11-20: 7.189319337905196
2025-11-19: 6.921574812440575
2025-11-18: 7.052465088728066
2025-11-17: 6.7911164841500575
2025-11-16: 6.890433136776985
2025-11-15: 6.890433136776985
2025-11-14: 6.890433136776985
2025-11-13: 6.971235967460553
2025-11-12: 6.91517743047735
2025-11-11: 6.937883762268876
2025-11-10: 7.277720646100253
2025-11-09: 7.272930208270222
2025-11-08: 7.272930208270222
2025-11-07: 7.272930208270222
2025-11-06: 7.339310347112523
2025-11-05: 7.2723337035160105
2025-11-04: 7.459436577794883
2025-11-03: 7.390931229662516
2025-11-02: 6.853310179420209
2025-11-01: 6.853310179420209
2025-10-31: 6.853310179420209
2025-10-30: 5.2543340863257315
2025-10-29: 5.077744165907879
2025-10-28: 5.0791081157944244
2025-10-27: 5.063654987832695
2025-10-26: 5.130860203618502
2025-10-25: 5.130860203618502
2025-10-24: 5.130860203618502
2025-10-23: 5.194003484005021
2025-10-22: 5.335849436350359
2025-10-21: 5.32245366169762
2025-10-20: 5.205718435929765
2025-10-19: 5.325388380595636
2025-10-18: 5.325388380595636
2025-10-17: 5.325388380595636
2025-10-16: 5.445033311990613
2025-10-15: 5.4192667375824355
2025-10-14: 5.447671636492021
2025-10-13: 5.292107822321934
2025-10-12: 5.367654765685641
2025-10-11: 5.367654765685641
2025-10-10: 5.367654765685641
2025-10-09: 4.838243593815306
2025-10-08: 4.713492584580545
2025-10-07: 4.649915607538066
2025-10-06: 4.798370560371524
2025-10-05: 4.729014684381474
2025-10-04: 4.729014684381474
2025-10-03: 4.729014684381474
2025-10-02: 4.718938843922239
2025-10-01: 4.78501101573537
2025-09-30: 4.726935456474028
2025-09-29: 4.75593002208621
2025-09-28: 4.867924404419165
2025-09-27: 4.867924404419165
2025-09-26: 4.867924404419165
2025-09-25: 5.009303298659339
2025-09-24: 5.071557633306812
2025-09-23: 5.068600481226449
2025-09-22: 4.859262573156727
2025-09-21: 4.927667292576239
2025-09-20: 4.927667292576239
2025-09-19: 4.927667292576239
2025-09-18: 4.963641183246168
2025-09-17: 4.984690317233857
2025-09-16: 4.9381283156448745
2025-09-15: 4.974138092178853
2025-09-14: 4.9275331891884075
2025-09-13: 4.9275331891884075
2025-09-12: 4.9275331891884075
2025-09-11: 4.960420357587515
2025-09-10: 5.1735294280629995
2025-09-09: 4.868416354094885
2025-09-08: 4.952909591143652
2025-09-07: 4.928517692580786
2025-09-06: 4.928517692580786
2025-09-05: 4.928517692580786
2025-09-04: 4.994556951685558
2025-09-03: 4.626446041869307
2025-09-02: 4.76617284827512
2025-09-01: 4.581263208223567
2025-08-31: 4.581263208223567
2025-08-30: 4.581263208223567
2025-08-29: 4.581263208223567
2025-08-28: 4.652899309126582
2025-08-27: 4.650045222028144
2025-08-26: 4.8492796576769415
2025-08-25: 4.993070729226007
2025-08-24: 5.200998589557094
2025-08-23: 5.200998589557094
2025-08-22: 5.200998589557094
2025-08-21: 4.961076014489971
2025-08-20: 5.088082049558914
2025-08-19: 4.934088642764165
2025-08-18: 4.9774792786709
2025-08-17: 5.08497754387215
2025-08-16: 5.08497754387215
2025-08-15: 5.08497754387215
2025-08-14: 5.1476677955191645
2025-08-13: 4.885949698885418
2025-08-12: 4.9964076027810504
2025-08-11: 5.038439191591733
2025-08-10: 5.222164579000835
2025-08-09: 5.222164579000835
2025-08-08: 5.222164579000835
2025-08-07: 5.476177379774337
2025-08-06: 5.482037647719719
2025-08-05: 5.218349128058134
2025-08-04: 5.262067587503112
2025-08-03: 5.203764765583279
2025-08-02: 5.203764765583279
2025-08-01: 5.203764765583279
2025-07-31: 3.964823781505547
2025-07-30: 3.782118200245156
2025-07-29: 3.8799726952159377
2025-07-28: 3.8392010823779787
2025-07-27: 3.915294177581934
2025-07-26: 3.915294177581934
2025-07-25: 3.915294177581934
2025-07-24: 4.116470418029945
2025-07-23: 3.840044549119388
2025-07-22: 4.0046635953407135
2025-07-21: 4.031945879868122
2025-07-20: 4.031325674863989
2025-07-19: 4.031325674863989
2025-07-18: 4.031325674863989
2025-07-17: 4.07835086762696
2025-07-16: 4.238992819508724
2025-07-15: 4.244298926568291
2025-07-14: 4.43155287795095
2025-07-13: 4.5862878555667725
2025-07-12: 4.5862878555667725
2025-07-11: 4.5862878555667725
2025-07-10: 4.599079369922271
2025-07-09: 4.715162680078551
2025-07-08: 4.698637295793731
2025-07-07: 4.631608832068729
2025-07-06: 4.840194267693608
2025-07-05: 4.840194267693608
2025-07-04: 4.840194267693608
2025-07-03: 4.840194267693608
2025-07-02: 4.897901800755374
2025-07-01: 5.079278205050259
2025-06-30: 5.16614482028249
2025-06-29: 5.20200117514797
2025-06-28: 5.20200117514797
2025-06-27: 5.20200117514797
2025-06-26: 5.097539914882912
2025-06-25: 5.024274693491696
2025-06-24: 5.03229596461065
2025-06-23: 4.967857568258583
2025-06-22: 5.113077240351188
2025-06-21: 5.113077240351188
2025-06-20: 5.113077240351188
2025-06-19: 4.997160480594546
2025-06-18: 4.997160480594546
2025-06-17: 4.9492489501805474
2025-06-16: 5.110729169154772
2025-06-15: 5.08386283946836
2025-06-14: 5.08386283946836
2025-06-13: 5.08386283946836
2025-06-12: 5.134159370614363
2025-06-11: 5.356017783738545
2025-06-10: 5.344173420423359
2025-06-09: 5.482955333923475
2025-06-08: 5.522413342632735
2025-06-07: 5.522413342632735
2025-06-06: 5.522413342632735
2025-06-05: 5.48875348782924
2025-06-04: 5.481734384504205
2025-06-03: 5.672637029466067
2025-06-02: 5.807455403352279
2025-06-01: 5.92187448636255
2025-05-31: 5.92187448636255
2025-05-30: 5.92187448636255
2025-05-29: 6.047402635704138
2025-05-28: 6.160279620677173
2025-05-27: 6.384147283806186
2025-05-26: 6.436774232695727
2025-05-25: 6.436774232695727
2025-05-24: 6.436774232695727
2025-05-23: 6.436774232695727
2025-05-22: 6.528064558287706
2025-05-21: 6.599454843946251
2025-05-20: 6.798642926894038
2025-05-19: 7.051614708530122
2025-05-18: 7.181738869928476
2025-05-17: 7.181738869928476
2025-05-16: 7.181738869928476
2025-05-15: 7.543410245590044
2025-05-14: 7.540595508246609
2025-05-13: 7.8837192725528356
2025-05-12: 8.013236374422883
2025-05-11: 7.198869472184978
2025-05-10: 7.198869472184978
2025-05-09: 7.198869472184978
2025-05-08: 7.481090294714831
2025-05-07: 7.624251462216933
2025-05-06: 7.7507314988237646
2025-05-05: 8.033096493174389
2025-05-04: 8.308719535092253
2025-05-03: 8.308719535092253
2025-05-02: 8.308719535092253
2025-05-01: 8.449389423458726
2025-04-30: 8.530880964521057
2025-04-29: 8.530180016704767
2025-04-28: 8.852500664399006
2025-04-27: 9.123462113117801
2025-04-26: 9.123462113117801
2025-04-25: 9.123462113117801
2025-04-24: 9.482959433492852
2025-04-23: 9.70780148088593
2025-04-22: 9.362246809643981
2025-04-21: 9.354727990764433
2025-04-20: 9.5112449651141
2025-04-19: 9.5112449651141
2025-04-18: 9.5112449651141
2025-04-17: 9.5112449651141
2025-04-16: 9.919032522902324
2025-04-15: 10.052804818834714
2025-04-14: 10.486096464303973
2025-04-13: 10.66118029126065
2025-04-12: 10.66118029126065
2025-04-11: 10.66118029126065
2025-04-10: 10.876655651330577
2025-04-09: 10.540244547586777
2025-04-08: 9.603340188116285
2025-04-07: 9.00898277395095
2025-04-06: 8.007366158155111
2025-04-05: 8.007366158155111
2025-04-04: 8.007366158155111
2025-04-03: 7.668701734774014
2025-04-02: 6.790140611457349
2025-04-01: 6.490921221893967
2025-03-31: 6.472530875305884
2025-03-30: 6.330417302312589
2025-03-29: 6.330417302312589
2025-03-28: 6.330417302312589
2025-03-27: 6.088142038833627
2025-03-26: 6.209538002833449
2025-03-25: 6.219502323739505
2025-03-24: 6.4679251568606935
2025-03-23: 6.393919963097574
2025-03-22: 6.393919963097574
2025-03-21: 6.393919963097574
2025-03-20: 6.541913712512527
2025-03-19: 6.505137515593419
2025-03-18: 6.697071593190148
2025-03-17: 6.723000130331575
2025-03-16: 6.880154549912369
2025-03-15: 6.880154549912369
2025-03-14: 6.880154549912369
2025-03-13: 7.043243783995169
2025-03-12: 7.0411862238848215
2025-03-11: 7.1035843190814925
2025-03-10: 7.1284755144495415
2025-03-09: 7.030666408139167
2025-03-08: 7.030666408139167
2025-03-07: 7.030666408139167
2025-03-06: 6.822255709291101
2025-03-05: 6.573198643960125
2025-03-04: 6.561906138056822
2025-03-03: 6.3458981197553035
2025-03-02: 5.952506324730469
2025-03-01: 5.952506324730469
2025-02-28: 5.952506324730469
2025-02-27: 5.977315301707935
2025-02-26: 5.544800624645804
2025-02-25: 5.559016010360748
2025-02-24: 5.280479343789936
2025-02-23: 5.278977520100099
2025-02-22: 5.278977520100099
2025-02-21: 5.278977520100099
2025-02-20: 5.02582255507475
2025-02-19: 5.0416544959098255
2025-02-18: 5.189474448119236
2025-02-17: 5.1594338802011235
2025-02-16: 5.1594338802011235
2025-02-15: 5.1594338802011235
2025-02-14: 5.1594338802011235
2025-02-13: 5.314774994859021
2025-02-12: 5.500527387041684
2025-02-11: 5.569799428758227
2025-02-10: 5.743630341847801
2025-02-09: 5.818524654877562
2025-02-08: 5.818524654877562
2025-02-07: 5.818524654877562
2025-02-06: 5.437641607371146
2025-02-05: 5.575151795994051
2025-02-04: 5.476317271812706
2025-02-03: 5.5052642847586375
2025-02-02: 5.440284144854256
2025-02-01: 5.440284144854256
2025-01-31: 5.440284144854256
2025-01-30: 5.424152625498093
2025-01-29: 5.400626233033402
2025-01-28: 5.489904751484893
2025-01-27: 5.312973690451279
2025-01-26: 4.971663974332146
2025-01-25: 4.971663974332146
2025-01-24: 4.971663974332146
2025-01-23: 5.087176493842068
2025-01-22: 5.170035472935694
2025-01-21: 5.20388468412005
2025-01-20: 5.15495301844539
2025-01-19: 5.15495301844539
2025-01-18: 5.15495301844539
2025-01-17: 5.15495301844539
2025-01-16: 5.10148857026991
2025-01-15: 5.160064895837543
2025-01-14: 5.110068901872524
2025-01-13: 5.070842634633752
2025-01-12: 5.235523400699327
2025-01-11: 5.235523400699327
2025-01-10: 5.235523400699327
2025-01-09: 5.2051786713060055
2025-01-08: 5.2051786713060055
2025-01-07: 5.35019185185118
2025-01-06: 5.229437519767017
2025-01-05: 5.274010106173371
2025-01-04: 5.274010106173371
2025-01-03: 5.274010106173371
2025-01-02: 5.284318622829133
2025-01-01: 5.155420712656131
2024-12-31: 5.155420712656131
2024-12-30: 5.221992053157927
2024-12-29: 5.214452416922479
2024-12-28: 5.214452416922479
2024-12-27: 5.214452416922479
2024-12-26: 5.142486513972408
2024-12-25: 5.354985100984708
2024-12-24: 5.354985100984708
2024-12-23: 5.4530607371331685
2024-12-22: 5.643295333348943
2024-12-21: 5.643295333348943
2024-12-20: 5.643295333348943
2024-12-19: 5.5020095138890035
2024-12-18: 5.496780086847408
2024-12-17: 5.051148302286991
2024-12-16: 5.048929973827095
2024-12-15: 5.011155872880502
2024-12-14: 5.011155872880502
2024-12-13: 5.011155872880502
2024-12-12: 5.062783529418186
2024-12-11: 5.186075227444343
2024-12-10: 5.111157655547033
2024-12-09: 5.1304774282543795
2024-12-08: 5.18589848718861
2024-12-07: 5.18589848718861
2024-12-06: 5.18589848718861
2024-12-05: 5.077122151993381
2024-12-04: 5.094593791013903
2024-12-03: 4.981870424276992
2024-12-02: 5.028936581838567
2024-12-01: 5.023469695555715
2024-11-30: 5.023469695555715
2024-11-29: 5.023469695555715
2024-11-28: 5.132198086725268
2024-11-27: 5.132198086725268
2024-11-26: 5.310828896581536
2024-11-25: 5.215507807721822
2024-11-24: 5.245162113619295
2024-11-23: 5.245162113619295
2024-11-22: 5.245162113619295
2024-11-21: 5.455559621833397
2024-11-20: 5.279833016346421
2024-11-19: 5.289050658980037
2024-11-18: 5.194361919481507
2024-11-17: 5.307774280925997
2024-11-16: 5.307774280925997
2024-11-15: 5.307774280925997
2024-11-14: 4.80298806275204
2024-11-13: 4.786295681912051
2024-11-12: 4.679088220845185
2024-11-11: 4.7674797163489036
2024-11-10: 4.821901420791607
2024-11-09: 4.821901420791607
2024-11-08: 4.821901420791607
2024-11-07: 4.992047636979303
2024-11-06: 4.979127942738531
2024-11-05: 4.715214425863851
2024-11-04: 4.767153339782465
2024-11-03: 4.855396279982076
2024-11-02: 4.855396279982076
2024-11-01: 4.855396279982076
2024-10-31: 4.144272447402574
2024-10-30: 3.886139558741233
2024-10-29: 3.8173811571600273
2024-10-28: 3.8310259085070726
2024-10-27: 3.942642910483578
2024-10-26: 3.942642910483578
2024-10-25: 3.942642910483578
2024-10-24: 3.9328468216415695
2024-10-23: 3.9853735002293824
2024-10-22: 3.829633422798109
2024-10-21: 3.7749891826347426
2024-10-20: 3.829987364577201
2024-10-19: 3.829987364577201
2024-10-18: 3.829987364577201
2024-10-17: 3.7815243377087384
2024-10-16: 3.846256791270468
2024-10-15: 3.9751997622185598
2024-10-14: 3.9863688338465524
2024-10-13: 4.103012496396049
2024-10-12: 4.103012496396049
2024-10-11: 4.103012496396049
2024-10-10: 4.139398871193943
2024-10-09: 4.230121344834463
2024-10-08: 4.263207367378823
2024-10-07: 4.414993065936207
2024-10-06: 4.273069878174687
2024-10-05: 4.273069878174687
2024-10-04: 4.273069878174687
2024-10-03: 4.16792145421517
2024-10-02: 4.190070056537609
2024-10-01: 4.315459074934134
2024-09-30: 4.42587862817426
2024-09-29: 4.470945322904612
2024-09-28: 4.470945322904612
2024-09-27: 4.470945322904612
2024-09-26: 4.521017476649682
2024-09-25: 4.484941475379345
2024-09-24: 4.691475200273307
2024-09-23: 4.6492817361116385
2024-09-22: 4.708458052426114
2024-09-21: 4.708458052426114
2024-09-20: 4.708458052426114
2024-09-19: 4.729878466014177
2024-09-18: 4.742945054370432
2024-09-17: 4.820094251386305
2024-09-16: 4.840101689293425
2024-09-15: 4.971647597484265
2024-09-14: 4.971647597484265
2024-09-13: 4.971647597484265
2024-09-12: 5.154851540529927
2024-09-11: 5.2536854762648035
2024-09-10: 4.945506684775555
2024-09-09: 4.933622114103243
2024-09-08: 4.9700540679675544
2024-09-07: 4.9700540679675544
2024-09-06: 4.9700540679675544
2024-09-05: 4.796981210064818
2024-09-04: 4.662133376088434
2024-09-03: 4.735373888566991
2024-09-02: 4.850402226674908
2024-09-01: 4.850402226674908
2024-08-31: 4.850402226674908
2024-08-30: 4.850402226674908
2024-08-29: 4.701971722627064
2024-08-28: 4.795201067877223
2024-08-27: 4.797139282909244
2024-08-26: 4.916149996979186
2024-08-25: 5.050469368366407
2024-08-24: 5.050469368366407
2024-08-23: 5.050469368366407
2024-08-22: 5.152044263814664
2024-08-21: 5.102970088344878
2024-08-20: 5.225506671537874
2024-08-19: 5.505930120805813
2024-08-18: 5.764847869356379
2024-08-17: 5.764847869356379
2024-08-16: 5.764847869356379
2024-08-15: 6.048297564610356
2024-08-14: 5.9127821804577865
2024-08-13: 6.104534796727976
2024-08-12: 6.247961301524359
2024-08-11: 6.5408812138411365
2024-08-10: 6.5408812138411365
2024-08-09: 6.5408812138411365
2024-08-08: 6.832487461059686
2024-08-07: 7.0396019280913205
2024-08-06: 7.108032141385005
2024-08-05: 7.151726264189861
2024-08-04: 6.4487826471173255
2024-08-03: 6.4487826471173255
2024-08-02: 6.4487826471173255
2024-08-01: 5.135611752860124
2024-07-31: 4.859119504131819
2024-07-30: 4.753667486946646
2024-07-29: 4.620873006901073
2024-07-28: 4.794017459955963
2024-07-27: 4.794017459955963
2024-07-26: 4.794017459955963
2024-07-25: 4.905865238576374
2024-07-24: 4.737086345795588
2024-07-23: 4.639939141626018
2024-07-22: 4.470703972682586
2024-07-21: 4.616142598961655
2024-07-20: 4.616142598961655
2024-07-19: 4.616142598961655
2024-07-18: 4.600461870771807
2024-07-17: 4.321266958712787
2024-07-16: 4.112902972514015
2024-07-15: 4.09235784547483
2024-07-14: 3.9948468635612353
2024-07-13: 3.9948468635612353
2024-07-12: 3.9948468635612353
2024-07-11: 4.099065900016066
2024-07-10: 3.8443783798550455
2024-07-09: 3.9539460883865614
2024-07-08: 4.141172381919302
2024-07-07: 4.210494085576555
2024-07-06: 4.210494085576555
2024-07-05: 4.210494085576555
2024-07-04: 4.306685421861894
2024-07-03: 4.306685421861894
2024-07-02: 4.3864301256619695
2024-07-01: 4.377693981482121
2024-06-30: 4.292901539477741
2024-06-29: 4.292901539477741
2024-06-28: 4.292901539477741
2024-06-27: 4.134662726859444
2024-06-26: 3.973483265268704
2024-06-25: 3.6222120899107697
2024-06-24: 3.6377670069081107
2024-06-23: 3.481441532905249
2024-06-22: 3.481441532905249
2024-06-21: 3.481441532905249
2024-06-20: 3.486167945517554
2024-06-19: 3.462796765470224
2024-06-18: 3.462796765470224
2024-06-17: 3.5091657004793517
2024-06-16: 3.4883323867241574
2024-06-15: 3.4883323867241574
2024-06-14: 3.4883323867241574
2024-06-13: 3.633588254663273
2024-06-12: 3.5284796588681404
2024-06-11: 3.57528475357074
2024-06-10: 3.6018442741278665
2024-06-09: 3.614293645875685
2024-06-08: 3.614293645875685
2024-06-07: 3.614293645875685
2024-06-06: 3.6669321820367977
2024-06-05: 3.662849948293234
2024-06-04: 3.7330691750850216
2024-06-03: 3.7602279667982925
2024-06-02: 3.835630211990709
2024-06-01: 3.835630211990709
2024-05-31: 3.835630211990709
2024-05-30: 3.7114469816029754
2024-05-29: 3.715404160025562
2024-05-28: 3.806589189312384
2024-05-27: 3.8878652807979504
2024-05-26: 3.8878652807979504
2024-05-25: 3.8878652807979504
2024-05-24: 3.8878652807979504
2024-05-23: 4.022316503194067
2024-05-22: 3.9717260283796656
2024-05-21: 4.027243415178101
2024-05-20: 4.122416502027739
2024-05-19: 4.17875627990307
2024-05-18: 4.17875627990307
2024-05-17: 4.17875627990307
2024-05-16: 4.350199305415444
2024-05-15: 4.388676879314591
2024-05-14: 4.392420362594197
2024-05-13: 4.40183698491214
2024-05-12: 4.51351698773291
2024-05-11: 4.51351698773291
2024-05-10: 4.51351698773291
2024-05-09: 4.633017778030273
2024-05-08: 4.661711875814452
2024-05-07: 4.837997780324216
2024-05-06: 5.0078433878251145
2024-05-05: 5.089216190869956
2024-05-04: 5.089216190869956
2024-05-03: 5.089216190869956
2024-05-02: 5.238387136591924
2024-05-01: 5.172108754520872
2024-04-30: 4.7891945128313695
2024-04-29: 4.527593902940993
2024-04-28: 4.557408865501959
2024-04-27: 4.557408865501959
2024-04-26: 4.557408865501959
2024-04-25: 4.357978073981076
2024-04-24: 3.9032080016971675
2024-04-23: 3.884992105794065
2024-04-22: 3.8799917332980556
2024-04-21: 3.846914362121464
2024-04-20: 3.846914362121464
2024-04-19: 3.846914362121464
2024-04-18: 3.6982155608002785
2024-04-17: 3.6950009506184487
2024-04-16: 3.613847177589099
2024-04-15: 3.6941425509252817
2024-04-14: 3.5406148670421302
2024-04-13: 3.5406148670421302
2024-04-12: 3.5406148670421302
2024-04-11: 3.507585147529746
2024-04-10: 3.4497063307531923
2024-04-09: 3.438144809771469
2024-04-08: 3.4610790728578533
2024-04-07: 3.536547022497758
2024-04-06: 3.536547022497758
2024-04-05: 3.536547022497758
2024-04-04: 3.3262810801929
2024-04-03: 3.189840693783462
2024-04-02: 3.1990598190414445
2024-04-01: 3.2459108560530465
2024-03-31: 3.26098068715268
2024-03-30: 3.26098068715268
2024-03-29: 3.26098068715268
2024-03-28: 3.26098068715268
2024-03-27: 3.3241328599024054
2024-03-26: 3.3729121228636485
2024-03-25: 3.4400592092377753
2024-03-24: 3.416217609948371
2024-03-23: 3.416217609948371
2024-03-22: 3.416217609948371
2024-03-21: 3.485927079418558
2024-03-20: 3.502536526107606
2024-03-19: 3.472731690450619
2024-03-18: 3.5421732000676136
2024-03-17: 3.62926316452594
2024-03-16: 3.62926316452594
2024-03-15: 3.62926316452594
2024-03-14: 3.5353598615267336
2024-03-13: 3.5719261925215786
2024-03-12: 3.675151612904849
2024-03-11: 3.5886257528999335
2024-03-10: 3.5662119736758897
2024-03-09: 3.5662119736758897
2024-03-08: 3.5662119736758897
2024-03-07: 3.497459705875718
2024-03-06: 3.4218788381486096
2024-03-05: 3.4389455020807143
2024-03-04: 3.3742490961410097
2024-03-03: 3.4299610345761358
2024-03-02: 3.4299610345761358
2024-03-01: 3.4299610345761358
2024-02-29: 3.4891896985188913
2024-02-28: 3.421435435544383
2024-02-27: 3.547699793717268
2024-02-26: 3.6767539996041734
2024-02-25: 3.7972734910851433
2024-02-24: 3.7972734910851433
2024-02-23: 3.7972734910851433
2024-02-22: 3.9316789094949383
2024-02-21: 3.756422924543227
2024-02-20: 3.8030713113169847
2024-02-19: 3.8056161034435316
2024-02-18: 3.8056161034435316
2024-02-17: 3.8056161034435316
2024-02-16: 3.8056161034435316
2024-02-15: 3.848355803708419
2024-02-14: 3.8689984169894753
2024-02-13: 3.941228454098642
2024-02-12: 3.7374770784223355
2024-02-11: 3.7288209995690056
2024-02-10: 3.7288209995690056
2024-02-09: 3.7288209995690056
2024-02-08: 3.6187300255274386
2024-02-07: 3.7009409664934916
2024-02-06: 3.836397776115587
2024-02-05: 3.8961196960181086
2024-02-04: 3.879667317992458
2024-02-03: 3.879667317992458
2024-02-02: 3.879667317992458
2024-02-01: 3.161180094707022
2024-01-31: 3.05357875133112
2024-01-30: 2.9653927361841146
2024-01-29: 2.944269851707893
2024-01-28: 2.9869060410970816
2024-01-27: 2.9869060410970816
2024-01-26: 2.9869060410970816
2024-01-25: 2.9882064118966167
2024-01-24: 2.91345371626727
2024-01-23: 2.9460278302589833
2024-01-22: 2.9972596604261406
2024-01-21: 2.985509699284041
2024-01-20: 2.985509699284041
2024-01-19: 2.985509699284041
2024-01-18: 2.9828574443311306
2024-01-17: 3.0530778580927804
2024-01-16: 3.0379300010229944
2024-01-15: 3.053154493664787
2024-01-14: 3.053154493664787
2024-01-13: 3.053154493664787
2024-01-12: 3.053154493664787
2024-01-11: 3.1195508053769823
2024-01-10: 3.0479775556553794
2024-01-09: 3.047821748262885
2024-01-08: 3.013038805821568
2024-01-07: 2.92481191370628
2024-01-06: 2.92481191370628
2024-01-05: 2.92481191370628
2024-01-04: 2.991336094868782
2024-01-03: 2.881439012247511
2024-01-02: 2.8938573039047712
2024-01-01: 2.8095382124232873
2023-12-31: 2.8095382124232873
2023-12-30: 2.8095382124232873
2023-12-29: 2.8095382124232873
2023-12-28: 2.8056564895057274
2023-12-27: 2.9345527669436677
2023-12-26: 3.032595005777075
2023-12-25: 3.1927948563566817
2023-12-24: 3.1927948563566817
2023-12-23: 3.1927948563566817
2023-12-22: 3.1927948563566817
2023-12-21: 3.312240661488085
2023-12-20: 3.4231826264342837
2023-12-19: 3.373426880450863
2023-12-18: 3.4459987423485257
2023-12-17: 3.3356905776974504
2023-12-16: 3.3356905776974504
2023-12-15: 3.3356905776974504
2023-12-14: 3.349973764037759
2023-12-13: 3.221511052527443
2023-12-12: 3.266242718902751
2023-12-11: 3.3482616243381793
2023-12-10: 3.315051073956741
2023-12-09: 3.315051073956741
2023-12-08: 3.315051073956741
2023-12-07: 3.382362507229856
2023-12-06: 3.38100624651797
2023-12-05: 3.3664677020794485
2023-12-04: 3.2069650298235404
2023-12-03: 3.1290391689866492
2023-12-02: 3.1290391689866492
2023-12-01: 3.1290391689866492
2023-11-30: 3.2389654936593
2023-11-29: 3.2881173897310494
2023-11-28: 3.343357799292692
2023-11-27: 3.431308633988885
2023-11-26: 3.5014101432440397
2023-11-25: 3.5014101432440397
2023-11-24: 3.5014101432440397
2023-11-23: 3.6261347985687014
2023-11-22: 3.6261347985687014
2023-11-21: 3.609682737175549
2023-11-20: 3.531196418280399
2023-11-19: 3.656672361588627
2023-11-18: 3.656672361588627
2023-11-17: 3.656672361588627
2023-11-16: 3.7310315862180405
2023-11-15: 3.7257260888688273
2023-11-14: 3.6507821766093382
2023-11-13: 3.572380946429648
2023-11-12: 3.624871835412818
2023-11-11: 3.624871835412818
2023-11-10: 3.624871835412818
2023-11-09: 3.6160165739541887
2023-11-08: 3.6780180366742226
2023-11-07: 3.814789124381134
2023-11-06: 3.8290044705624955
2023-11-05: 3.9412359592836492
2023-11-04: 3.9412359592836492
2023-11-03: 3.9412359592836492
2023-11-02: 4.087484221926863
2023-11-01: 4.221906366852727
2023-10-31: 4.2189753361779365
2023-10-30: 4.400434930472273
2023-10-29: 4.33431437618318
2023-10-28: 4.33431437618318
2023-10-27: 4.33431437618318
2023-10-26: 3.863876668379061
2023-10-25: 3.9080209570599624
2023-10-24: 3.610945904290236
2023-10-23: 3.699479688168932
2023-10-22: 3.684055518298514
2023-10-21: 3.684055518298514
2023-10-20: 3.684055518298514
2023-10-19: 3.703598813876765
2023-10-18: 3.621567624754906
2023-10-17: 3.595534435545849
2023-10-16: 3.574422075419568
2023-10-15: 3.5970688475221553
2023-10-14: 3.5970688475221553
2023-10-13: 3.5970688475221553
2023-10-12: 3.53838178884297
2023-10-11: 3.560565003369352
2023-10-10: 3.6367617479193983
2023-10-09: 3.709589386881948
2023-10-08: 3.6849430974188415
2023-10-07: 3.6849430974188415
2023-10-06: 3.6849430974188415
2023-10-05: 3.636092589926119
2023-10-04: 3.7104075453861802
2023-10-03: 3.7927466342890837
2023-10-02: 3.683726628167691
2023-10-01: 3.6647824991670683
2023-09-30: 3.6647824991670683
2023-09-29: 3.6647824991670683
2023-09-28: 3.702843419137552
2023-09-27: 3.7153697655691076
2023-09-26: 3.7434746626501436
2023-09-25: 3.5706645987644574
2023-09-24: 3.6137930673743437
2023-09-23: 3.6137930673743437
2023-09-22: 3.6137930673743437
2023-09-21: 3.6217775720311445
2023-09-20: 3.440376175453612
2023-09-19: 3.3842514067234815
2023-09-18: 3.304578578860264
2023-09-17: 3.36416164036514
2023-09-16: 3.36416164036514
2023-09-15: 3.36416164036514
2023-09-14: 3.2667890832538045
2023-09-13: 3.29423411564953
2023-09-12: 3.231482846826297
2023-09-11: 3.2885195663387763
2023-09-10: 3.126867272238033
2023-09-09: 3.126867272238033
2023-09-08: 3.126867272238033
2023-09-07: 3.2058565929089875
2023-09-06: 3.0778459371952556
2023-09-05: 3.0961420602186887
2023-09-04: 3.157384696160992
2023-09-03: 3.157384696160992
2023-09-02: 3.157384696160992
2023-09-01: 3.157384696160992
2023-08-31: 3.163337224246092
2023-08-30: 3.1151329117932676
2023-08-29: 3.2193743275592164
2023-08-28: 3.313172352756079
2023-08-27: 3.4064940072198877
2023-08-26: 3.4064940072198877
2023-08-25: 3.4064940072198877
2023-08-24: 3.4154556011496626
2023-08-23: 3.2974139590656226
2023-08-22: 3.341061515336896
2023-08-21: 3.4503740804439413
2023-08-20: 3.525018569128932
2023-08-19: 3.525018569128932
2023-08-18: 3.525018569128932
2023-08-17: 3.5715574261592824
2023-08-16: 3.6493697236643237
2023-08-15: 3.725474805322397
2023-08-14: 3.7005110940581343
2023-08-13: 3.7667045368402507
2023-08-12: 3.7667045368402507
2023-08-11: 3.7667045368402507
2023-08-10: 3.877220129592986
2023-08-09: 3.950852588104346
2023-08-08: 4.007071924058286
2023-08-07: 4.02300029885063
2023-08-06: 4.056308295847553
2023-08-05: 4.056308295847553
2023-08-04: 4.056308295847553
2023-08-03: 3.2360242247048165
2023-08-02: 3.2211035746220142
2023-08-01: 3.0942651767789355
2023-07-31: 3.173054242360488
2023-07-30: 3.289443922286656
2023-07-29: 3.289443922286656
2023-07-28: 3.289443922286656
2023-07-27: 3.1763246465520956
2023-07-26: 3.048349314188014
2023-07-25: 3.0505297020131734
2023-07-24: 3.2044163674174317
2023-07-23: 3.1962947373269457
2023-07-22: 3.1962947373269457
2023-07-21: 3.1962947373269457
2023-07-20: 3.2152407211026963
2023-07-19: 2.9987208704723747
2023-07-18: 2.963237344057389
2023-07-17: 2.9981021776898085
2023-07-16: 3.0433416987951545
2023-07-15: 3.0433416987951545
2023-07-14: 3.0433416987951545
2023-07-13: 3.0782144188647336
2023-07-12: 3.0173082113014438
2023-07-11: 3.058639940821627
2023-07-10: 3.090842473266138
2023-07-09: 3.031676462721107
2023-07-08: 3.031676462721107
2023-07-07: 3.031676462721107
2023-07-06: 3.046421087708067
2023-07-05: 3.049222545514037
2023-07-04: 3.1483939331046598
2023-07-03: 3.1483939331046598
2023-07-02: 3.2536550987821817
2023-07-01: 3.2536550987821817
2023-06-30: 3.2536550987821817
2023-06-29: 3.2462440699099577
2023-06-28: 3.342109585241073
2023-06-27: 3.365349300557093
2023-06-26: 3.4119150539202576
2023-06-25: 3.3366772104492797
2023-06-24: 3.3366772104492797
2023-06-23: 3.3366772104492797
2023-06-22: 3.396421799053551
2023-06-21: 3.2346080912884387
2023-06-20: 3.2618852611712033
2023-06-19: 3.301261050492065
2023-06-18: 3.301261050492065
2023-06-17: 3.301261050492065
2023-06-16: 3.301261050492065
2023-06-15: 3.3552043255975232
2023-06-14: 3.354065985521793
2023-06-13: 3.3943791996649955
2023-06-12: 3.4070234952597187
2023-06-11: 3.411410035347305
2023-06-10: 3.411410035347305
2023-06-09: 3.411410035347305
2023-06-08: 3.4730569141931316
2023-06-07: 3.4017540694014987
2023-06-06: 3.1449654983428372
2023-06-05: 3.2022704193016014
2023-06-04: 3.235521661366269
2023-06-03: 3.235521661366269
2023-06-02: 3.235521661366269
2023-06-01: 3.205946193272749
2023-05-31: 3.178711472863442
2023-05-30: 3.2024582979620133
2023-05-29: 3.2134168163749557
2023-05-28: 3.2134168163749557
2023-05-27: 3.2134168163749557
2023-05-26: 3.2134168163749557
2023-05-25: 2.9606027253268756
2023-05-24: 2.9914179205067675
2023-05-23: 3.040757877921049
2023-05-22: 3.0162007446571635
2023-05-21: 3.054370290933375
2023-05-20: 3.054370290933375
2023-05-19: 3.054370290933375
2023-05-18: 3.088552574055053
2023-05-17: 3.087672120203819
2023-05-16: 3.1382622598213614
2023-05-15: 3.091974905671501
2023-05-14: 3.095972904913359
2023-05-13: 3.095972904913359
2023-05-12: 3.095972904913359
2023-05-11: 3.078740074920216
2023-05-10: 3.077874208537876
2023-05-09: 3.003095653628229
2023-05-08: 3.108718607490557
2023-05-07: 3.2401583829991467
2023-05-06: 3.2401583829991467
2023-05-05: 3.2401583829991467
2023-05-04: 3.319401405962721
2023-05-03: 3.4147398348018014
2023-05-02: 3.471258260157649
2023-05-01: 3.5267396647851603
2023-04-30: 3.5187967733518666
2023-04-29: 3.5187967733518666
2023-04-28: 3.5187967733518666
2023-04-27: 3.3671659202428144
2023-04-26: 3.1738712023062643
2023-04-25: 3.1064764446561437
2023-04-24: 3.0562052376119664
2023-04-23: 2.9712976664967807
2023-04-22: 2.9712976664967807
2023-04-21: 2.9712976664967807
2023-04-20: 2.8660125664361376
2023-04-19: 2.9295519241983525
2023-04-18: 2.8679787370648713
2023-04-17: 2.8824386164409543
2023-04-16: 2.9395487393177224
2023-04-15: 2.9395487393177224
2023-04-14: 2.9395487393177224
2023-04-13: 3.0048989240428825
2023-04-12: 2.871429774833139
2023-04-11: 2.8769241381466246
2023-04-10: 2.8551493770259926
2023-04-09: 2.8724687711496855
2023-04-08: 2.8724687711496855
2023-04-07: 2.8724687711496855
2023-04-06: 2.8724687711496855
2023-04-05: 2.894966814956572
2023-04-04: 2.871502958549985
2023-04-03: 2.931618852446858
2023-04-02: 3.014051024915727
2023-04-01: 3.014051024915727
2023-03-31: 3.014051024915727
2023-03-30: 3.1274394948686823
2023-03-29: 3.15339630866417
2023-03-28: 3.1513498473940436
2023-03-27: 3.228376641356748
2023-03-26: 3.302867574781425
2023-03-25: 3.302867574781425
2023-03-24: 3.302867574781425
2023-03-23: 3.379242191411247
2023-03-22: 3.374568912903518
2023-03-21: 3.3656897628369014
2023-03-20: 3.3830505607744756
2023-03-19: 3.3932852192955893
2023-03-18: 3.3932852192955893
2023-03-17: 3.3932852192955893
2023-03-16: 3.4081529609616563
2023-03-15: 3.2564726307727088
2023-03-14: 3.230047565899755
2023-03-13: 3.275435887149857
2023-03-12: 3.073546809508738
2023-03-11: 3.073546809508738
2023-03-10: 3.073546809508738
2023-03-09: 3.0545888952537013
2023-03-08: 2.979557365711918
2023-03-07: 3.055677327399794
2023-03-06: 3.1130373096156445
2023-03-05: 3.1363474728177496
2023-03-04: 3.1363474728177496
2023-03-03: 3.1363474728177496
2023-03-02: 3.1614507254969397
2023-03-01: 3.263100476128617
2023-02-28: 3.276415592193499
2023-02-27: 3.3922933860190856
2023-02-26: 3.527085231893754
2023-02-25: 3.527085231893754
2023-02-24: 3.527085231893754
2023-02-23: 3.529168711270197
2023-02-22: 3.58833537088864
2023-02-21: 3.6774380682511683
2023-02-20: 3.7349332807954294
2023-02-19: 3.7349332807954294
2023-02-18: 3.7349332807954294
2023-02-17: 3.7349332807954294
2023-02-16: 3.8299281485489267
2023-02-15: 3.8891529916689787
2023-02-14: 3.97908774328174
2023-02-13: 4.023632836928113
2023-02-12: 4.120066390302094
2023-02-11: 4.120066390302094
2023-02-10: 4.120066390302094
2023-02-09: 4.237764086641444
2023-02-08: 4.2398998560390435
2023-02-07: 4.266815276530629
2023-02-06: 4.261954772336469
2023-02-05: 4.335951645411333
2023-02-04: 4.335951645411333
2023-02-03: 4.335951645411333
2023-02-02: 3.870255078208868
2023-02-01: 3.4871978939078994
2023-01-31: 3.370828501131575
2023-01-30: 3.4147387379599077
2023-01-29: 3.428949738761515
2023-01-28: 3.428949738761515
2023-01-27: 3.428949738761515
2023-01-26: 3.3642538230457486
2023-01-25: 3.4253502944474135
2023-01-24: 3.2488386847354165
2023-01-23: 3.337980403723489
2023-01-22: 3.4470559602449016
2023-01-21: 3.4470559602449016
2023-01-20: 3.4470559602449016
2023-01-19: 3.3929832244268945
2023-01-18: 3.4539820513735036
2023-01-17: 3.4165958675248236
2023-01-16: 3.4363343163563638
2023-01-15: 3.4363343163563638
2023-01-14: 3.4363343163563638
2023-01-13: 3.4363343163563638
2023-01-12: 3.3737446483837643
2023-01-11: 3.349417125843569
2023-01-10: 3.1924492593970046
2023-01-09: 3.2149452388984034
2023-01-08: 3.2007101398998996
2023-01-07: 3.2007101398998996
2023-01-06: 3.2007101398998996
2023-01-05: 3.064610825991921
2023-01-04: 3.119581006905078
2023-01-03: 3.0810870269299153
2023-01-02: 3.0904014840420153
2023-01-01: 3.0904014840420153
2022-12-31: 3.0904014840420153
2022-12-30: 3.0904014840420153
2022-12-29: 3.196586284008929
2022-12-28: 3.2324772783993545
2022-12-27: 3.343436998620327
2022-12-26: 3.4198553466587653
2022-12-25: 3.4198553466587653
2022-12-24: 3.4198553466587653
2022-12-23: 3.4198553466587653
2022-12-22: 3.4636904907001473
2022-12-21: 3.382436171287314
2022-12-20: 3.4857004217304492
2022-12-19: 3.578446701917706
2022-12-18: 3.5960196425174575
2022-12-17: 3.5960196425174575
2022-12-16: 3.5960196425174575
2022-12-15: 3.6710984521582786
2022-12-14: 3.6373367476818466
2022-12-13: 3.6409783176657897
2022-12-12: 3.4802840838758113
2022-12-11: 3.539536776137652
2022-12-10: 3.539536776137652
2022-12-09: 3.539536776137652
2022-12-08: 3.6795010496327647
2022-12-07: 3.7333085644558395
2022-12-06: 3.835101836128349
2022-12-05: 3.8885712550884133
2022-12-04: 3.933076924049606
2022-12-03: 3.933076924049606
2022-12-02: 3.933076924049606
2022-12-01: 4.103313516614982
2022-11-30: 4.241260311124958
2022-11-29: 4.182126324578275
2022-11-28: 4.275366717184234
2022-11-27: 4.374241244370185
2022-11-26: 4.374241244370185
2022-11-25: 4.374241244370185
2022-11-24: 4.606105908525982
2022-11-23: 4.606105908525982
2022-11-22: 4.8258063630285095
2022-11-21: 5.0062533349897045
2022-11-20: 5.05058049112936
2022-11-19: 5.05058049112936
2022-11-18: 5.05058049112936
2022-11-17: 5.169087105306135
2022-11-16: 5.329016577462111
2022-11-15: 5.477402350661338
2022-11-14: 5.402586794739874
2022-11-13: 5.5489396251050715
2022-11-12: 5.5489396251050715
2022-11-11: 5.5489396251050715
2022-11-10: 5.6250115048836165
2022-11-09: 5.092319847429259
2022-11-08: 5.167882865666386
2022-11-07: 5.296950942736077
2022-11-06: 5.469024279978801
2022-11-05: 5.469024279978801
2022-11-04: 5.469024279978801
2022-11-03: 5.551256799525467
2022-11-02: 5.633660910494632
2022-11-01: 5.6262505399527
2022-10-31: 5.403654098988778
2022-10-30: 5.50162711561855
2022-10-29: 5.50162711561855
2022-10-28: 5.50162711561855
2022-10-27: 4.901752630478861
2022-10-26: 4.8257330621270285
2022-10-25: 4.747712810144388
2022-10-24: 4.9306135842666565
2022-10-23: 5.016045421917124
2022-10-22: 5.016045421917124
2022-10-21: 5.016045421917124
2022-10-20: 5.010356889919087
2022-10-19: 5.031923133179397
2022-10-18: 5.15976374979612
2022-10-17: 5.1158997515074764
2022-10-16: 4.94866120042605
2022-10-15: 4.94866120042605
2022-10-14: 4.94866120042605
2022-10-13: 4.6862504765805975
2022-10-12: 4.424423284982537
2022-10-11: 4.577840437278776
2022-10-10: 4.538443242661958
2022-10-09: 4.593708130958594
2022-10-08: 4.593708130958594
2022-10-07: 4.593708130958594
2022-10-06: 4.453223695002291
2022-10-05: 4.639625611600588
2022-10-04: 4.684212384910239
2022-10-03: 4.496843895544373
2022-10-02: 4.499677524904263
2022-10-01: 4.499677524904263
2022-09-30: 4.499677524904263
2022-09-29: 4.531960270586297
2022-09-28: 4.49980301619641
2022-09-27: 4.469019102326668
2022-09-26: 4.407405445343593
2022-09-25: 4.4225905500267935
2022-09-24: 4.4225905500267935
2022-09-23: 4.4225905500267935
2022-09-22: 4.3589436692559165
2022-09-21: 4.4996317377231305
2022-09-20: 4.437295318467754
2022-09-19: 4.50785616816572
2022-09-18: 4.6307684862869545
2022-09-17: 4.6307684862869545
2022-09-16: 4.6307684862869545
2022-09-15: 4.557750536683278
2022-09-14: 4.533731722796155
2022-09-13: 4.689403816346788
2022-09-12: 4.267050240238513
2022-09-11: 4.347592472519606
2022-09-10: 4.347592472519606
2022-09-09: 4.347592472519606
2022-09-08: 4.384330730626566
2022-09-07: 4.476971532596512
2022-09-06: 4.481353512155338
2022-09-05: 4.527611685911427
2022-09-04: 4.527611685911427
2022-09-03: 4.527611685911427
2022-09-02: 4.527611685911427
2022-09-01: 4.492042931501531
2022-08-31: 4.502200033130249
2022-08-30: 4.552369383832824
2022-08-29: 4.501012501801908
2022-08-28: 4.602629411518272
2022-08-27: 4.602629411518272
2022-08-26: 4.602629411518272
2022-08-25: 4.392831533042439
2022-08-24: 4.4522804881234475
2022-08-23: 4.5355332089876645
2022-08-22: 4.727496644742121
2022-08-21: 4.677304877089021
2022-08-20: 4.677304877089021
2022-08-19: 4.677304877089021
2022-08-18: 4.6994052992074575
2022-08-17: 4.877051907701059
2022-08-16: 4.944517439089666
2022-08-15: 4.973325909476762
2022-08-14: 5.181274901558225
2022-08-13: 5.181274901558225
2022-08-12: 5.181274901558225
2022-08-11: 5.314448955049912
2022-08-10: 5.3594057218988524
2022-08-09: 5.250898141023513
2022-08-08: 5.408659771335904
2022-08-07: 5.3677872582261035
2022-08-06: 5.3677872582261035
2022-08-05: 5.3677872582261035
2022-08-04: 5.52992516229653
2022-08-03: 5.644535306706138
2022-08-02: 5.591807112481225
2022-08-01: 5.7642533440959856
2022-07-31: 5.798426114889037
2022-07-30: 5.798426114889037
2022-07-29: 5.798426114889037
2022-07-28: 5.06215157547888
2022-07-27: 5.08539442693919
2022-07-26: 4.931193692878956
2022-07-25: 4.80205469905814
2022-07-24: 4.893751167549475
2022-07-23: 4.893751167549475
2022-07-22: 4.893751167549475
2022-07-21: 4.950962678534083
2022-07-20: 5.055652397216312
2022-07-19: 5.039163791399226
2022-07-18: 5.027561405176262
2022-07-17: 5.099681795114762
2022-07-16: 5.099681795114762
2022-07-15: 5.099681795114762
2022-07-14: 5.110426619033941
2022-07-13: 5.22661339968706
2022-07-12: 5.184814688551257
2022-07-11: 5.207492201652654
2022-07-10: 5.248837896598614
2022-07-09: 5.248837896598614
2022-07-08: 5.248837896598614
2022-07-07: 5.430287013095952
2022-07-06: 5.578770629997405
2022-07-05: 5.740983662080956
2022-07-04: 5.585674548066832
2022-07-03: 5.585674548066832
2022-07-02: 5.585674548066832
2022-07-01: 5.585674548066832
2022-06-30: 5.7153417041754135
2022-06-29: 5.662675563801323
2022-06-28: 5.784420284571094
2022-06-27: 5.628606647273859
2022-06-26: 5.655422050396304
2022-06-25: 5.655422050396304
2022-06-24: 5.655422050396304
2022-06-23: 5.684300763737058
2022-06-22: 5.731554692430853
2022-06-21: 5.7793665452426914
2022-06-20: 5.603163993908817
2022-06-19: 5.603163993908817
2022-06-18: 5.603163993908817
2022-06-17: 5.603163993908817
2022-06-16: 5.6903303618062555
2022-06-15: 5.692663771757345
2022-06-14: 5.61133021495112
2022-06-13: 5.777586621816289
2022-06-12: 5.6227855205616235
2022-06-11: 5.6227855205616235
2022-06-10: 5.6227855205616235
2022-06-09: 5.509153753528946
2022-06-08: 5.532934459676537
2022-06-07: 5.7277755746922105
2022-06-06: 5.848373415943294
2022-06-05: 5.78747852240659
2022-06-04: 5.78747852240659
2022-06-03: 5.78747852240659
2022-06-02: 5.889246069970957
2022-06-01: 5.914187888023407
2022-05-31: 5.986856366988995
2022-05-30: 5.920614580480793
2022-05-29: 5.920614580480793
2022-05-28: 5.920614580480793
2022-05-27: 5.920614580480793
2022-05-26: 6.059931315314916
2022-05-25: 6.072964855262722
2022-05-24: 6.192038960777011
2022-05-23: 6.183965259805909
2022-05-22: 6.285116183312301
2022-05-21: 6.285116183312301
2022-05-20: 6.285116183312301
2022-05-19: 6.392547891209243
2022-05-18: 6.588821137087861
2022-05-17: 6.394153585577847
2022-05-16: 6.502203715757236
2022-05-15: 6.722488317211454
2022-05-14: 6.722488317211454
2022-05-13: 6.722488317211454
2022-05-12: 6.758564197850549
2022-05-11: 6.634222975680307
2022-05-10: 6.703970830460539
2022-05-09: 6.798775960855811
2022-05-08: 6.797489622986042
2022-05-07: 6.797489622986042
2022-05-06: 6.797489622986042
2022-05-05: 6.861219462393592
2022-05-04: 6.5539289990152145
2022-05-03: 6.533692663199223
2022-05-02: 6.775092106336785
2022-05-01: 6.812176174428804
2022-04-30: 6.812176174428804
2022-04-29: 6.812176174428804
2022-04-28: 5.569151398745456
2022-04-27: 5.399817444831103
2022-04-26: 5.340956583896558
2022-04-25: 5.202222400650697
2022-04-24: 5.301240038660148
2022-04-23: 5.301240038660148
2022-04-22: 5.301240038660148
2022-04-21: 5.25383457402402
2022-04-20: 4.954243816319572
2022-04-19: 4.988263084410829
2022-04-18: 4.825937484793847
2022-04-17: 4.905701810141874
2022-04-16: 4.905701810141874
2022-04-15: 4.905701810141874
2022-04-14: 4.905701810141874
2022-04-13: 4.942678645758107
2022-04-12: 4.8286548384764085
2022-04-11: 4.837320334549038
2022-04-10: 4.907422312183143
2022-04-09: 4.907422312183143
2022-04-08: 4.907422312183143
2022-04-07: 5.011570419421833
2022-04-06: 4.968807390200997
2022-04-05: 4.827908577530276
2022-04-04: 4.8084792215971675
2022-04-03: 4.77920873778419
2022-04-02: 4.77920873778419
2022-04-01: 4.77920873778419
2022-03-31: 4.877033138680004
2022-03-30: 4.979767377229494
2022-03-29: 5.069364724050476
2022-03-28: 5.231393062755039
2022-03-27: 5.305807373999838
2022-03-26: 5.305807373999838
2022-03-25: 5.305807373999838
2022-03-24: 5.474061909517442
2022-03-23: 5.582182381457542
2022-03-22: 5.728273541243335
2022-03-21: 5.809255676407397
2022-03-20: 5.984505807127842
2022-03-19: 5.984505807127842
2022-03-18: 5.984505807127842
2022-03-17: 6.015391469487313
2022-03-16: 6.065921227172276
2022-03-15: 6.086646456012952
2022-03-14: 6.083157426891979
2022-03-13: 6.046016087379769
2022-03-12: 6.046016087379769
2022-03-11: 6.046016087379769
2022-03-10: 6.179863670006405
2022-03-09: 5.932507258699889
2022-03-08: 6.063046154463762
2022-03-07: 5.98120350372542
2022-03-06: 5.773757738665835
2022-03-05: 5.773757738665835
2022-03-04: 5.773757738665835
2022-03-03: 5.903163060213049
2022-03-02: 5.813175572623999
2022-03-01: 5.933458841726349
2022-02-28: 6.072802614576295
2022-02-27: 6.263019382219254
2022-02-26: 6.263019382219254
2022-02-25: 6.263019382219254
2022-02-24: 6.377366988801069
2022-02-23: 5.925702140259389
2022-02-22: 5.834448210100257
2022-02-21: 5.937329649246445
2022-02-20: 5.937329649246445
2022-02-19: 5.937329649246445
2022-02-18: 5.937329649246445
2022-02-17: 6.039702218566491
2022-02-16: 6.054371752578036
2022-02-15: 6.204746939943312
2022-02-14: 6.4228433233706115
2022-02-13: 6.393945922986704
2022-02-12: 6.393945922986704
2022-02-11: 6.393945922986704
2022-02-10: 6.4035186803901984
2022-02-09: 6.631521495563164
2022-02-08: 6.8659089525515595
2022-02-07: 6.91390310044446
2022-02-06: 7.02720458321716
2022-02-05: 7.02720458321716
2022-02-04: 7.02720458321716
2022-02-03: 5.848173461507793
2022-02-02: 5.353451161795482
2022-02-01: 5.2874466611576345
2022-01-31: 5.380290357604899
2022-01-30: 5.3031959533868305
2022-01-29: 5.3031959533868305
2022-01-28: 5.3031959533868305
2022-01-27: 5.2443260140631125
2022-01-26: 5.23458157626702
2022-01-25: 5.032123651422502
2022-01-24: 4.926977705490975
2022-01-23: 4.568047398067129
2022-01-22: 4.568047398067129
2022-01-21: 4.568047398067129
2022-01-20: 4.1811986860925545
2022-01-19: 3.9913643824414002
2022-01-18: 4.0676245973721965
2022-01-17: 4.036403135547365
2022-01-16: 4.036403135547365
2022-01-15: 4.036403135547365
2022-01-14: 4.036403135547365
2022-01-13: 4.158475743867754
2022-01-12: 4.083703438695126
2022-01-11: 4.208530010965796
2022-01-10: 4.097760221549728
2022-01-09: 3.9322372540407753
2022-01-08: 3.9322372540407753
2022-01-07: 3.9322372540407753
2022-01-06: 3.9876038550960797
2022-01-05: 4.074114243568669
2022-01-04: 4.144047981622482
2022-01-03: 4.074318852833694
2022-01-02: 4.038265000252558
2022-01-01: 4.038265000252558
2021-12-31: 4.038265000252558
2021-12-30: 4.134174034173986
2021-12-29: 4.270348017093953
2021-12-28: 4.39795753520266
2021-12-27: 4.5023834840161925
2021-12-26: 4.561994045826825
2021-12-25: 4.561994045826825
2021-12-24: 4.561994045826825
2021-12-23: 4.561994045826825
2021-12-22: 4.772544893489196
2021-12-21: 4.866631940405642
2021-12-20: 4.851063965878236
2021-12-19: 4.884418095888257
2021-12-18: 4.884418095888257
2021-12-17: 4.884418095888257
2021-12-16: 4.85360110812444
2021-12-15: 4.764985624095228
2021-12-14: 4.484956016293221
2021-12-13: 4.589387006586801
2021-12-12: 4.705353531040855
2021-12-11: 4.705353531040855
2021-12-10: 4.705353531040855
2021-12-09: 4.649835033015731
2021-12-08: 4.789841432689541
2021-12-07: 4.971433854883308
2021-12-06: 4.882222501542479
2021-12-05: 4.737676236449647
2021-12-04: 4.737676236449647
2021-12-03: 4.737676236449647
2021-12-02: 4.597201757817978
2021-12-01: 4.6856583762764155
2021-11-30: 4.591150196831192
2021-11-29: 4.5836982201610175
2021-11-28: 4.584597827905998
2021-11-27: 4.584597827905998
2021-11-26: 4.584597827905998
2021-11-25: 4.439720522763702
2021-11-24: 4.439720522763702
2021-11-23: 4.485904022269694
2021-11-22: 4.471968664637685
2021-11-21: 4.25450863644733
2021-11-20: 4.25450863644733
2021-11-19: 4.25450863644733
2021-11-18: 4.249353392439071
2021-11-17: 3.9791981804386496
2021-11-16: 4.10630499477791
2021-11-15: 4.22472864709565
2021-11-14: 4.2853915343502935
2021-11-13: 4.2853915343502935
2021-11-12: 4.2853915343502935
2021-11-11: 4.254712907839504
2021-11-10: 4.290595746927306
2021-11-09: 4.072970634024274
2021-11-08: 3.9831789830456636
2021-11-07: 3.9390085762241385
2021-11-06: 3.9390085762241385
2021-11-05: 3.9390085762241385
2021-11-04: 3.898632513298362
2021-11-03: 3.68439127975269
2021-11-02: 3.5931110320945985
2021-11-01: 3.6866313069086347
2021-10-31: 3.6477171582950376
2021-10-30: 3.6477171582950376
2021-10-29: 3.6477171582950376
2021-10-28: 3.261541694520626
2021-10-27: 3.154611701378622
2021-10-26: 3.1451458534164267
2021-10-25: 3.0186375945179926
2021-10-24: 3.058206026395394
2021-10-23: 3.058206026395394
2021-10-22: 3.058206026395394
2021-10-21: 2.8943082237460023
2021-10-20: 2.9736971313958604
2021-10-19: 2.962074649313809
2021-10-18: 3.0643989899420334
2021-10-17: 3.0536767345794114
2021-10-16: 3.0536767345794114
2021-10-15: 3.0536767345794114
2021-10-14: 2.8629062930532108
2021-10-13: 2.9744825605313108
2021-10-12: 3.045593177399451
2021-10-11: 3.160005274097106
2021-10-10: 3.193609231895021
2021-10-09: 3.193609231895021
2021-10-08: 3.193609231895021
2021-10-07: 3.3118570261232545
2021-10-06: 3.3214950217691
2021-10-05: 3.3242363262452885
2021-10-04: 3.3069905334674274
2021-10-03: 3.1490917797611178
2021-10-02: 3.1490917797611178
2021-10-01: 3.1490917797611178
2021-09-30: 3.18678043022404
2021-09-29: 3.224960921419704
2021-09-28: 3.267773296456615
2021-09-27: 3.072969563463226
2021-09-26: 2.9783154590752723
2021-09-25: 2.9783154590752723
2021-09-24: 2.9783154590752723
2021-09-23: 3.070134184196226
2021-09-22: 3.1185470292552044
2021-09-21: 3.174465270244501
2021-09-20: 3.237240826071079
2021-09-19: 2.8770717392138745
2021-09-18: 2.8770717392138745
2021-09-17: 2.8770717392138745
2021-09-16: 2.9247131263148027
2021-09-15: 2.9717027685701325
2021-09-14: 2.8783939072975038
2021-09-13: 2.9113788408976533
2021-09-12: 2.90462377438179
2021-09-11: 2.90462377438179
2021-09-10: 2.90462377438179
2021-09-09: 2.953619085521433
2021-09-08: 2.912401363741149
2021-09-07: 2.9448288043770123
2021-09-06: 2.975178561995718
2021-09-05: 2.975178561995718
2021-09-04: 2.975178561995718
2021-09-03: 2.975178561995718
2021-09-02: 3.027256640947523
2021-09-01: 3.0413437476565646
2021-08-31: 3.0595158146719346
2021-08-30: 2.9972156155692296
2021-08-29: 2.857257079208096
2021-08-28: 2.857257079208096
2021-08-27: 2.857257079208096
2021-08-26: 2.930797439953832
2021-08-25: 3.020537804511858
2021-08-24: 3.1222106607128057
2021-08-23: 3.1733561235290737
2021-08-22: 3.103431978549103
2021-08-21: 3.103431978549103
2021-08-20: 3.103431978549103
2021-08-19: 3.2238626578287297
2021-08-18: 3.2799638645503646
2021-08-17: 3.326417306988226
2021-08-16: 3.298915283663014
2021-08-15: 3.2056905754561997
2021-08-14: 3.2056905754561997
2021-08-13: 3.2056905754561997
2021-08-12: 3.3735985161959174
2021-08-11: 3.4666412176965817
2021-08-10: 3.505585646224279
2021-08-09: 3.618284734599611
2021-08-08: 3.810717200759618
2021-08-07: 3.810717200759618
2021-08-06: 3.810717200759618
2021-08-05: 3.933953915901731
2021-08-04: 4.063760044356724
2021-08-03: 4.226056429766421
2021-08-02: 4.197119834790732
2021-08-01: 4.380074858005263
2021-07-31: 4.380074858005263
2021-07-30: 4.380074858005263
2021-07-29: 3.476916428642667
2021-07-28: 3.5284998049193654
2021-07-27: 3.587696282625976
2021-07-26: 3.3964980093745862
2021-07-25: 3.410843469499956
2021-07-24: 3.410843469499956
2021-07-23: 3.410843469499956
2021-07-22: 3.5243618994203074
2021-07-21: 3.585281884171615
2021-07-20: 3.726127276601371
2021-07-19: 3.7287265426853415
2021-07-18: 3.7292576861362243
2021-07-17: 3.7292576861362243
2021-07-16: 3.7292576861362243
2021-07-15: 3.723958536485387
2021-07-14: 3.7239541886089342
2021-07-13: 3.8216994119344476
2021-07-12: 3.676524393828663
2021-07-11: 3.7541444923181873
2021-07-10: 3.7541444923181873
2021-07-09: 3.7541444923181873
2021-07-08: 3.881537181249884
2021-07-07: 3.4816842213366557
2021-07-06: 3.5587779019518577
2021-07-05: 2.7995088094721012
2021-07-04: 2.7995088094721012
2021-07-03: 2.7995088094721012
2021-07-02: 2.7995088094721012
2021-07-01: 2.619663562954021
2021-06-30: 2.6610526059312334
2021-06-29: 2.818998681122642
2021-06-28: 3.0695167009455857
2021-06-27: 3.2539801777614272
2021-06-26: 3.2539801777614272
2021-06-25: 3.2539801777614272
2021-06-24: 3.170615073039047
2021-06-23: 2.580261314154979
2021-06-22: 2.965706719292535
2021-06-21: 2.4000091552734375


ATR: Averages true range to measure volatility. Usage: Set stop-loss levels and adjust position sizes based on current market volatility. Tips: It's a reactive measure, so use it as part of a broader risk management strategy.