## atr values from 2021-06-21 to 2026-06-20:

2026-06-20: 10.754579479421642
2026-06-19: 10.754579479421642
2026-06-18: 10.754579479421642
2026-06-17: 10.750316550254558
2026-06-16: 10.7134169782489
2026-06-15: 10.849833481082948
2026-06-14: 10.660590090505194
2026-06-13: 10.660590090505194
2026-06-12: 10.660590090505194
2026-06-11: 10.586019721866165
2026-06-10: 10.443405666516927
2026-06-09: 10.219053383051884
2026-06-08: 9.868211429494576
2026-06-07: 10.028843171817474
2026-06-06: 10.028843171817474
2026-06-05: 10.028843171817474
2026-06-04: 10.17989203596702
2026-06-03: 9.806727511780359
2026-06-02: 9.917627377596395
2026-06-01: 9.302114859746608
2026-05-31: 9.493360182059083
2026-05-30: 9.493360182059083
2026-05-29: 9.493360182059083
2026-05-28: 9.326460021626355
2026-05-27: 9.528034940880776
2026-05-26: 9.647480149904798
2026-05-25: 9.877591862805847
2026-05-24: 9.877591862805847
2026-05-23: 9.877591862805847
2026-05-22: 9.877591862805847
2026-05-21: 10.10157272905343
2026-05-20: 10.14982048778777
2026-05-19: 10.088002891191277
2026-05-18: 10.015278638290047
2026-05-17: 9.703255298826935
2026-05-16: 9.703255298826935
2026-05-15: 9.703255298826935
2026-05-14: 9.843097841267813
2026-05-13: 10.055200435825547
2026-05-12: 9.39107354054998
2026-05-11: 9.662192380790955
2026-05-10: 9.457543956165779
2026-05-09: 9.457543956165779
2026-05-08: 9.457543956165779
2026-05-07: 9.751459042175654
2026-05-06: 9.931141732709051
2026-05-05: 9.817137585567504
2026-05-04: 9.836586289243183
2026-05-03: 10.009749441687866
2026-05-02: 10.009749441687866
2026-05-01: 10.009749441687866
2026-04-30: 10.187005572920501
2026-04-29: 8.210732149563034
2026-04-28: 7.952088120571923
2026-04-27: 8.079459705782947
2026-04-26: 7.897591719452442
2026-04-25: 7.897591719452442
2026-04-24: 7.897591719452442
2026-04-23: 7.745554443736744
2026-04-22: 7.897016447234881
2026-04-21: 7.925593142126254
2026-04-20: 7.921006420763468
2026-04-19: 8.140546081172495
2026-04-18: 8.140546081172495
2026-04-17: 8.140546081172495
2026-04-16: 8.282412752658129
2026-04-15: 8.507458646757323
2026-04-14: 8.656025514906021
2026-04-13: 8.400884658178853
2026-04-12: 8.5735429775843
2026-04-11: 8.5735429775843
2026-04-10: 8.5735429775843
2026-04-09: 8.809454720192209
2026-04-08: 8.835185945371588
2026-04-07: 8.237117664783595
2026-04-06: 8.262643498046847
2026-04-05: 8.480019531283347
2026-04-04: 8.480019531283347
2026-04-03: 8.480019531283347
2026-04-02: 8.480019531283347
2026-04-01: 8.468880790590394
2026-03-31: 8.124005181611455
2026-03-30: 7.628060670471271
2026-03-29: 7.831985482801706
2026-03-28: 7.831985482801706
2026-03-27: 7.831985482801706
2026-03-26: 7.898612699461581
2026-03-25: 7.550616244572693
2026-03-24: 7.611742550735877
2026-03-23: 7.295490606555986
2026-03-22: 7.468451115978873
2026-03-21: 7.468451115978873
2026-03-20: 7.468451115978873
2026-03-19: 7.361814738025718
2026-03-18: 7.489140277844206
2026-03-17: 7.639327894511707
2026-03-16: 7.771854702120729
2026-03-15: 8.046037127483908
2026-03-14: 8.046037127483908
2026-03-13: 8.046037127483908
2026-03-12: 8.107603675205109
2026-03-11: 8.12316691596474
2026-03-10: 8.325201523916252
2026-03-09: 8.662705453172194
2026-03-08: 8.35118990416275
2026-03-07: 8.35118990416275
2026-03-06: 8.35118990416275
2026-03-05: 8.555695387883654
2026-03-04: 8.805895409720012
2026-03-03: 9.120666931656586
2026-03-02: 9.0686219354254
2026-03-01: 8.962636646854738
2026-02-28: 8.962636646854738
2026-02-27: 8.962636646854738
2026-02-26: 8.9936958723546
2026-02-25: 8.856596983856448
2026-02-24: 9.215215781321414
2026-02-23: 9.437020467050985
2026-02-22: 9.421602896749361
2026-02-21: 9.421602896749361
2026-02-20: 9.421602896749361
2026-02-19: 9.097705355317148
2026-02-18: 9.38038010229169
2026-02-17: 9.78466810776971
2026-02-16: 9.809818829634565
2026-02-15: 9.809818829634565
2026-02-14: 9.809818829634565
2026-02-13: 9.809818829634565
2026-02-12: 10.158023845332238
2026-02-11: 10.24493130540112
2026-02-10: 10.157220388046069
2026-02-09: 10.192590057808676
2026-02-08: 10.174602297441398
2026-02-07: 10.174602297441398
2026-02-06: 10.174602297441398
2026-02-05: 10.086858634016382
2026-02-04: 8.820811422234396
2026-02-03: 8.363121312371897
2026-02-02: 8.120668345120677
2026-02-01: 8.03856426223742
2026-01-31: 8.03856426223742
2026-01-30: 8.03856426223742
2026-01-29: 8.064610078823215
2026-01-28: 7.475001139394155
2026-01-27: 7.619791547379957
2026-01-26: 7.848702628006883
2026-01-25: 7.77333324397102
2026-01-24: 7.77333324397102
2026-01-23: 7.77333324397102
2026-01-22: 7.891906692182961
2026-01-21: 7.97888738583475
2026-01-20: 7.583960535423361
2026-01-19: 7.432145197959527
2026-01-18: 7.432145197959527
2026-01-17: 7.432145197959527
2026-01-16: 7.432145197959527
2026-01-15: 7.469929673447241
2026-01-14: 7.510618282027059
2026-01-13: 7.624348442859944
2026-01-12: 7.547855421936329
2026-01-11: 7.433978368286078
2026-01-10: 7.433978368286078
2026-01-09: 7.433978368286078
2026-01-08: 7.591746901478822
2026-01-07: 7.498147317018177
2026-01-06: 7.156124463650469
2026-01-05: 7.002895884232715
2026-01-04: 7.20432809125644
2026-01-03: 7.20432809125644
2026-01-02: 7.20432809125644
2026-01-01: 6.823569307865253
2025-12-31: 6.823569307865253
2025-12-30: 7.107236005155727
2025-12-29: 7.309009240413226
2025-12-28: 7.610042698417841
2025-12-27: 7.610042698417841
2025-12-26: 7.610042698417841
2025-12-25: 7.979557918136069
2025-12-24: 7.979557918136069
2025-12-23: 8.350611212073872
2025-12-22: 8.561220611587366
2025-12-21: 8.848719227370912
2025-12-20: 8.848719227370912
2025-12-19: 8.848719227370912
2025-12-18: 9.04694108268662
2025-12-17: 9.186660089625027
2025-12-16: 8.973753945013886
2025-12-15: 9.035630478912084
2025-12-14: 9.22825536394922
2025-12-13: 9.22825536394922
2025-12-12: 9.22825536394922
2025-12-11: 9.222898484241604
2025-12-10: 8.970528038979314
2025-12-09: 9.151231261188883
2025-12-08: 9.387319865793907
2025-12-07: 9.353481021143887
2025-12-06: 9.353481021143887
2025-12-05: 9.353481021143887
2025-12-04: 9.647655924106118
2025-12-03: 9.801705228446487
2025-12-02: 9.981423053467596
2025-12-01: 10.40605005940858
2025-11-30: 10.723617000345103
2025-11-29: 10.723617000345103
2025-11-28: 10.723617000345103
2025-11-27: 10.77617580801868
2025-11-26: 10.77617580801868
2025-11-25: 11.013194279935474
2025-11-24: 11.002043064074199
2025-11-23: 10.326713802585873
2025-11-22: 10.326713802585873
2025-11-21: 10.326713802585873
2025-11-20: 10.010174605481382
2025-11-19: 9.417469784923696
2025-11-18: 8.642514723766244
2025-11-17: 8.493533187646486
2025-11-16: 7.800283005087545
2025-11-15: 7.800283005087545
2025-11-14: 7.800283005087545
2025-11-13: 7.796099905923662
2025-11-12: 7.66876344773216
2025-11-11: 7.61991759984539
2025-11-10: 7.852909485594787
2025-11-09: 7.53801017261636
2025-11-08: 7.53801017261636
2025-11-07: 7.53801017261636
2025-11-06: 7.383911510699171
2025-11-05: 7.398373089525748
2025-11-04: 7.270379756109752
2025-11-03: 7.2569161329712815
2025-11-02: 7.375231155458174
2025-11-01: 7.375231155458174
2025-10-31: 7.375231155458174
2025-10-30: 7.253903954837357
2025-10-29: 6.505222938964603
2025-10-28: 6.401421898561155
2025-10-27: 6.569088948447893
2025-10-26: 6.289784039596347
2025-10-25: 6.289784039596347
2025-10-24: 6.289784039596347
2025-10-23: 6.113367231862711
2025-10-22: 6.326437996527972
2025-10-21: 6.270303552601481
2025-10-20: 5.800651109203774
2025-10-19: 5.937460580314326
2025-10-18: 5.937460580314326
2025-10-17: 5.937460580314326
2025-10-16: 5.902073993491908
2025-10-15: 5.829418962937927
2025-10-14: 5.766529301081027
2025-10-13: 5.702639804709751
2025-10-12: 5.532494911438246
2025-10-11: 5.532494911438246
2025-10-10: 5.532494911438246
2025-10-09: 5.324695379512948
2025-10-08: 5.303591539996871
2025-10-07: 5.54342853568711
2025-10-06: 5.592123776108586
2025-10-05: 5.504837644322185
2025-10-04: 5.504837644322185
2025-10-03: 5.504837644322185
2025-10-02: 5.572060650441211
2025-10-01: 5.654435536327323
2025-09-30: 5.499008624005204
2025-09-29: 5.553500973596188
2025-09-28: 5.337337605230774
2025-09-27: 5.337337605230774
2025-09-26: 5.337337605230774
2025-09-25: 5.469216194709687
2025-09-24: 5.3985783841304285
2025-09-23: 5.360125733191144
2025-09-22: 5.474564017468824
2025-09-21: 5.4749693615371005
2025-09-20: 5.4749693615371005
2025-09-19: 5.4749693615371005
2025-09-18: 5.574442378726117
2025-09-17: 5.660838218917076
2025-09-16: 5.687855113854831
2025-09-15: 5.851303921587636
2025-09-14: 5.4100707237022325
2025-09-13: 5.4100707237022325
2025-09-12: 5.4100707237022325
2025-09-11: 5.512996589088312
2025-09-10: 5.476436102832813
2025-09-09: 5.605196009659474
2025-09-08: 5.480529046108017
2025-09-07: 5.559700722593156
2025-09-06: 5.559700722593156
2025-09-05: 5.559700722593156
2025-09-04: 5.69129152086591
2025-09-03: 5.648914944873561
2025-09-02: 4.552430650094649
2025-09-01: 4.38793058875297
2025-08-31: 4.38793058875297
2025-08-30: 4.38793058875297
2025-08-29: 4.38793058875297
2025-08-28: 4.384129994158405
2025-08-27: 4.313303538226049
2025-08-26: 4.395039509796661
2025-08-25: 4.519113146604483
2025-08-24: 4.464806498351806
2025-08-23: 4.464806498351806
2025-08-22: 4.464806498351806
2025-08-21: 4.134023308550005
2025-08-20: 4.209640349669269
2025-08-19: 4.152238048947823
2025-08-18: 4.200108649283464
2025-08-17: 4.309956188995164
2025-08-16: 4.309956188995164
2025-08-15: 4.309956188995164
2025-08-14: 4.245697045887565
2025-08-13: 4.326067953592511
2025-08-12: 4.120378203224619
2025-08-11: 4.13741644282963
2025-08-10: 4.270822877084928
2025-08-09: 4.270822877084928
2025-08-08: 4.270822877084928
2025-08-07: 4.13222084252663
2025-08-06: 4.203863960394079
2025-08-05: 4.300193002898343
2025-08-04: 4.326461065651734
2025-08-03: 4.188300749544353
2025-08-02: 4.188300749544353
2025-08-01: 4.188300749544353
2025-07-31: 4.197526092816161
2025-07-30: 4.103141184250095
2025-07-29: 4.19555776719169
2025-07-28: 4.223748909529928
2025-07-27: 4.302431487502002
2025-07-26: 4.302431487502002
2025-07-25: 4.302431487502002
2025-07-24: 4.397905123545645
2025-07-23: 4.144048919638015
2025-07-22: 4.205862161267289
2025-07-21: 4.208000164833629
2025-07-20: 4.130530022491498
2025-07-19: 4.130530022491498
2025-07-18: 4.130530022491498
2025-07-17: 4.2304233929746164
2025-07-16: 4.28123918797811
2025-07-15: 4.4318444168290645
2025-07-14: 4.568723064099217
2025-07-13: 4.614112872653703
2025-07-12: 4.614112872653703
2025-07-11: 4.614112872653703
2025-07-10: 4.589358781617279
2025-07-09: 4.631735068606462
2025-07-08: 4.476405090739286
2025-07-07: 4.426484092007361
2025-07-06: 4.471672400546921
2025-07-05: 4.471672400546921
2025-07-04: 4.471672400546921
2025-07-03: 4.471672400546921
2025-07-02: 4.61468243305578
2025-07-01: 4.678949400190157
2025-06-30: 4.831765330717423
2025-06-29: 4.693356695981586
2025-06-28: 4.693356695981586
2025-06-27: 4.693356695981586
2025-06-26: 4.521289785985396
2025-06-25: 4.581440328010993
2025-06-24: 4.505082376353364
2025-06-23: 4.619212711583438
2025-06-22: 4.564936315936151
2025-06-21: 4.564936315936151
2025-06-20: 4.564936315936151
2025-06-19: 4.234952238866028
2025-06-18: 4.234952238866028
2025-06-17: 4.302991431071314
2025-06-16: 4.420753013834858
2025-06-15: 4.585157537013608
2025-06-14: 4.585157537013608
2025-06-13: 4.585157537013608
2025-06-12: 4.574283353735233
2025-06-11: 4.726720226650564
2025-06-10: 4.8126450560829666
2025-06-09: 4.70728236402255
2025-06-08: 4.839268894420964
2025-06-07: 4.839268894420964
2025-06-06: 4.839268894420964
2025-06-05: 4.729632131179409
2025-06-04: 4.837567835925419
2025-06-03: 5.053399850524709
2025-06-02: 5.154830312670672
2025-06-01: 5.21809593694167
2025-05-31: 5.21809593694167
2025-05-30: 5.21809593694167
2025-05-29: 5.254050717261324
2025-05-28: 5.367851346206734
2025-05-27: 5.5233482653757076
2025-05-26: 5.588146265439562
2025-05-25: 5.588146265439562
2025-05-24: 5.588146265439562
2025-05-23: 5.588146265439562
2025-05-22: 5.789701621852275
2025-05-21: 5.606083255575699
2025-05-20: 5.3033819952040195
2025-05-19: 5.282309505601285
2025-05-18: 5.503241271362477
2025-05-17: 5.503241271362477
2025-05-16: 5.503241271362477
2025-05-15: 5.5136327888177625
2025-05-14: 5.643569290894867
2025-05-13: 5.505401692349067
2025-05-12: 5.591037076018522
2025-05-11: 5.53463600556598
2025-05-10: 5.53463600556598
2025-05-09: 5.53463600556598
2025-05-08: 5.742033927752296
2025-05-07: 5.835147659344934
2025-05-06: 4.969351369768099
2025-05-05: 5.075041554160428
2025-05-04: 5.26087677969125
2025-05-03: 5.26087677969125
2025-05-02: 5.26087677969125
2025-05-01: 5.384395902367694
2025-04-30: 5.5572536932258965
2025-04-29: 5.62006321260137
2025-04-28: 5.805686619250469
2025-04-27: 5.903696491303321
2025-04-26: 5.903696491303321
2025-04-25: 5.903696491303321
2025-04-24: 5.835336657175788
2025-04-23: 5.959376421946676
2025-04-22: 5.953525689284409
2025-04-21: 6.0652040337292155
2025-04-20: 6.144102484499322
2025-04-19: 6.144102484499322
2025-04-18: 6.144102484499322
2025-04-17: 6.144102484499322
2025-04-16: 6.143267101503327
2025-04-15: 6.248091762181967
2025-04-14: 6.388560092492656
2025-04-13: 6.529105390225718
2025-04-12: 6.529105390225718
2025-04-11: 6.529105390225718
2025-04-10: 6.6597791792649295
2025-04-09: 6.4994180405121735
2025-04-08: 5.801169213912768
2025-04-07: 5.541820485782864
2025-04-06: 5.024259998989939
2025-04-05: 5.024259998989939
2025-04-04: 5.024259998989939
2025-04-03: 4.974821867577871
2025-04-02: 4.848034856249601
2025-04-01: 4.936731412143816
2025-03-31: 4.973259560574048
2025-03-30: 4.981954598794682
2025-03-29: 4.981954598794682
2025-03-28: 4.981954598794682
2025-03-27: 4.705555939102035
2025-03-26: 4.805510536706368
2025-03-25: 4.736947323404596
2025-03-24: 4.875322429932399
2025-03-23: 4.918618680683628
2025-03-22: 4.918618680683628
2025-03-21: 4.918618680683628
2025-03-20: 5.040324953660292
2025-03-19: 5.126959571724477
2025-03-18: 5.12296177498279
2025-03-17: 4.937086165398159
2025-03-16: 5.1153733607592695
2025-03-15: 5.1153733607592695
2025-03-14: 5.1153733607592695
2025-03-13: 5.199352449841013
2025-03-12: 5.216244282016107
2025-03-11: 5.302620474236768
2025-03-10: 5.298344074237079
2025-03-09: 4.942093535088192
2025-03-08: 4.942093535088192
2025-03-07: 4.942093535088192
2025-03-06: 4.96259494376692
2025-03-05: 5.0145174303055695
2025-03-04: 5.039059082846614
2025-03-03: 4.8535196838217995
2025-03-02: 4.657533283434851
2025-03-01: 4.657533283434851
2025-02-28: 4.657533283434851
2025-02-27: 4.721955594677378
2025-02-26: 4.578598539960831
2025-02-25: 4.586443200199683
2025-02-24: 4.590299828383921
2025-02-23: 4.619706221981767
2025-02-22: 4.619706221981767
2025-02-21: 4.619706221981767
2025-02-20: 4.496032282648032
2025-02-19: 4.643685645330428
2025-02-18: 4.857792721113401
2025-02-17: 4.908540326896832
2025-02-16: 4.908540326896832
2025-02-15: 4.908540326896832
2025-02-14: 4.908540326896832
2025-02-13: 5.126952759946395
2025-02-12: 5.2810503736870595
2025-02-11: 5.420217646462157
2025-02-10: 5.633604997170719
2025-02-09: 5.848101371094714
2025-02-08: 5.848101371094714
2025-02-07: 5.848101371094714
2025-02-06: 5.6582189849915565
2025-02-05: 5.834817193796637
2025-02-04: 4.8794460052167645
2025-02-03: 4.809422869638801
2025-02-02: 4.87940804252759
2025-02-01: 4.87940804252759
2025-01-31: 4.87940804252759
2025-01-30: 4.901975858280654
2025-01-29: 4.8206739396752
2025-01-28: 4.934376433259276
2025-01-27: 4.946631384658581
2025-01-26: 4.601698484736638
2025-01-25: 4.601698484736638
2025-01-24: 4.601698484736638
2025-01-23: 4.732226710516266
2025-01-22: 4.705974446913558
2025-01-21: 4.842228765925413
2025-01-20: 4.733377459751738
2025-01-19: 4.733377459751738
2025-01-18: 4.733377459751738
2025-01-17: 4.733377459751738
2025-01-16: 4.76690275225151
2025-01-15: 4.9239131024463205
2025-01-14: 4.789969572913766
2025-01-13: 4.8775881125006
2025-01-12: 4.894658630241007
2025-01-11: 4.894658630241007
2025-01-10: 4.894658630241007
2025-01-09: 4.795960121992803
2025-01-08: 4.795960121992803
2025-01-07: 4.8656745888860105
2025-01-06: 4.750208045675636
2025-01-05: 4.62356285607187
2025-01-04: 4.62356285607187
2025-01-03: 4.62356285607187
2025-01-02: 4.689963672397863
2025-01-01: 4.706374859595784
2024-12-31: 4.706374859595784
2024-12-30: 4.8043971182550695
2024-12-29: 4.895421543032786
2024-12-28: 4.895421543032786
2024-12-27: 4.895421543032786
2024-12-26: 4.893200649241258
2024-12-25: 5.088240669739022
2024-12-24: 5.088240669739022
2024-12-23: 5.30134419465404
2024-12-22: 5.330348232076463
2024-12-21: 5.330348232076463
2024-12-20: 5.330348232076463
2024-12-19: 5.1534408038768955
2024-12-18: 5.194026073906268
2024-12-17: 4.884960424650289
2024-12-16: 4.767915811716721
2024-12-15: 4.432195425481163
2024-12-14: 4.432195425481163
2024-12-13: 4.432195425481163
2024-12-12: 4.536676567062028
2024-12-11: 4.603280908792273
2024-12-10: 4.133988268382187
2024-12-09: 3.610993610222518
2024-12-08: 3.689036305997129
2024-12-07: 3.689036305997129
2024-12-06: 3.689036305997129
2024-12-05: 3.726685006277614
2024-12-04: 3.72824796451509
2024-12-03: 3.7207580839351597
2024-12-02: 3.8670937837928268
2024-12-01: 3.8962733918133314
2024-11-30: 3.8962733918133314
2024-11-29: 3.8962733918133314
2024-11-28: 4.0224783564467055
2024-11-27: 4.0224783564467055
2024-11-26: 4.2203041953814635
2024-11-25: 4.373726411146395
2024-11-24: 4.414361040372587
2024-11-23: 4.414361040372587
2024-11-22: 4.414361040372587
2024-11-21: 4.46882154153171
2024-11-20: 3.8739450763219496
2024-11-19: 3.8402104959940995
2024-11-18: 3.7297375141498534
2024-11-17: 3.7911555489045607
2024-11-16: 3.7911555489045607
2024-11-15: 3.7911555489045607
2024-11-14: 3.7495230291266957
2024-11-13: 3.6894032148117852
2024-11-12: 3.7377793186545465
2024-11-11: 3.788349428017182
2024-11-10: 3.9116008866719763
2024-11-09: 3.9116008866719763
2024-11-08: 3.9116008866719763
2024-11-07: 3.996944987354147
2024-11-06: 3.955089882398382
2024-11-05: 3.7089906074216366
2024-11-04: 3.865120916618828
2024-11-03: 3.911728556898019
2024-11-02: 3.911728556898019
2024-11-01: 3.911728556898019
2024-10-31: 3.949691483987555
2024-10-30: 3.8086571357505288
2024-10-29: 3.15841418522338
2024-10-28: 3.1216116852283635
2024-10-27: 2.9948437274596706
2024-10-26: 2.9948437274596706
2024-10-25: 2.9948437274596706
2024-10-24: 3.0058475789455
2024-10-23: 3.0597350530254324
2024-10-22: 2.9977629848576615
2024-10-21: 3.015103663141801
2024-10-20: 3.10333508083261
2024-10-19: 3.10333508083261
2024-10-18: 3.10333508083261
2024-10-17: 3.205992359494504
2024-10-16: 3.1766739896608582
2024-10-15: 3.2635759916801645
2024-10-14: 3.2814921113210094
2024-10-13: 3.305372253784127
2024-10-12: 3.305372253784127
2024-10-11: 3.305372253784127
2024-10-10: 3.35631337054088
2024-10-09: 3.4104067755744736
2024-10-08: 3.2829239423035745
2024-10-07: 3.39328595273614
2024-10-06: 3.216331256238515
2024-10-05: 3.216331256238515
2024-10-04: 3.216331256238515
2024-10-03: 3.253542941256721
2024-10-02: 3.295910066693173
2024-10-01: 3.3361851375109066
2024-09-30: 3.242738757490714
2024-09-29: 3.2712808731341005
2024-09-28: 3.2712808731341005
2024-09-27: 3.2712808731341005
2024-09-26: 3.2882606097037734
2024-09-25: 3.343234416550617
2024-09-24: 3.484988704223818
2024-09-23: 3.5596823367470716
2024-09-22: 3.5415188190529014
2024-09-21: 3.5415188190529014
2024-09-20: 3.5415188190529014
2024-09-19: 3.686295727964627
2024-09-18: 3.6656412875263733
2024-09-17: 3.802386179624599
2024-09-16: 3.9045541379784168
2024-09-15: 4.0787858685656255
2024-09-14: 4.0787858685656255
2024-09-13: 4.0787858685656255
2024-09-12: 4.110490418973282
2024-09-11: 4.146928493736857
2024-09-10: 4.1617088908093836
2024-09-09: 4.257882927672676
2024-09-08: 4.113039840037819
2024-09-07: 4.113039840037819
2024-09-06: 4.113039840037819
2024-09-05: 3.8737125303663014
2024-09-04: 3.906809666199951
2024-09-03: 3.975277172814523
2024-09-02: 3.7543593006438196
2024-09-01: 3.7543593006438196
2024-08-31: 3.7543593006438196
2024-08-30: 3.7543593006438196
2024-08-29: 3.892777116105565
2024-08-28: 3.755588185585441
2024-08-27: 3.733797671270365
2024-08-26: 3.8698709271974385
2024-08-25: 3.931680052385698
2024-08-24: 3.931680052385698
2024-08-23: 3.931680052385698
2024-08-22: 4.052440927155434
2024-08-21: 4.037455668333745
2024-08-20: 4.156427774737648
2024-08-19: 4.3257719005590065
2024-08-18: 4.37379696569883
2024-08-17: 4.37379696569883
2024-08-16: 4.37379696569883
2024-08-15: 4.410248914458361
2024-08-14: 4.59453990867305
2024-08-13: 4.455609388928999
2024-08-12: 4.612091376821647
2024-08-11: 4.733284316970712
2024-08-10: 4.733284316970712
2024-08-09: 4.733284316970712
2024-08-08: 4.736321349803695
2024-08-07: 4.738061984900572
2024-08-06: 4.744519444958957
2024-08-05: 4.7919307625591125
2024-08-04: 4.265135505877926
2024-08-03: 4.265135505877926
2024-08-02: 4.265135505877926
2024-08-01: 4.128347298787921
2024-07-31: 4.0512633435705805
2024-07-30: 4.039240329371482
2024-07-29: 4.136978425736888
2024-07-28: 4.193378808163545
2024-07-27: 4.193378808163545
2024-07-26: 4.193378808163545
2024-07-25: 4.208318525504319
2024-07-24: 4.056471755207406
2024-07-23: 3.607455024680872
2024-07-22: 3.726938626281076
2024-07-21: 3.628899910806464
2024-07-20: 3.628899910806464
2024-07-19: 3.628899910806464
2024-07-18: 3.66682997774608
2024-07-17: 3.4885969830788515
2024-07-16: 3.450086534897222
2024-07-15: 3.3101418847684227
2024-07-14: 3.3113371215644585
2024-07-13: 3.3113371215644585
2024-07-12: 3.3113371215644585
2024-07-11: 3.3660593923452837
2024-07-10: 3.159347152754918
2024-07-09: 3.1909255811942145
2024-07-08: 3.2348584146208683
2024-07-07: 3.2684306844233273
2024-07-06: 3.2684306844233273
2024-07-05: 3.2684306844233273
2024-07-04: 3.133596104135888
2024-07-03: 3.133596104135888
2024-07-02: 3.2151031697858037
2024-07-01: 3.1563167494301374
2024-06-30: 3.202167227192235
2024-06-29: 3.202167227192235
2024-06-28: 3.202167227192235
2024-06-27: 3.185133139574723
2024-06-26: 3.264496234328671
2024-06-25: 3.360652421277361
2024-06-24: 3.232146530165295
2024-06-23: 3.311310552040768
2024-06-22: 3.311310552040768
2024-06-21: 3.311310552040768
2024-06-20: 3.2187047677405323
2024-06-19: 3.2907290636893936
2024-06-18: 3.2907290636893936
2024-06-17: 3.292722149934559
2024-06-16: 3.2750207900978703
2024-06-15: 3.2750207900978703
2024-06-14: 3.2750207900978703
2024-06-13: 3.3048118281709953
2024-06-12: 3.336895846093962
2024-06-11: 3.2653416282114383
2024-06-10: 3.282175467242165
2024-06-09: 3.206411962480782
2024-06-08: 3.206411962480782
2024-06-07: 3.206411962480782
2024-06-06: 3.180857941592096
2024-06-05: 3.292873455527604
2024-06-04: 3.328101298685545
2024-06-03: 3.434664520875122
2024-06-02: 3.4419175528983894
2024-06-01: 3.4419175528983894
2024-05-31: 3.4419175528983894
2024-05-30: 3.4306667405500475
2024-05-29: 3.381191291843932
2024-05-28: 3.479639709000527
2024-05-27: 3.5261873488229516
2024-05-26: 3.5261873488229516
2024-05-25: 3.5261873488229516
2024-05-24: 3.5261873488229516
2024-05-23: 3.6281659561591666
2024-05-22: 3.5031464166838164
2024-05-21: 3.5713263755398272
2024-05-20: 3.667626136527176
2024-05-19: 3.7431209576473505
2024-05-18: 3.7431209576473505
2024-05-17: 3.7431209576473505
2024-05-16: 3.834335993789188
2024-05-15: 3.930279148506737
2024-05-14: 4.056479213012616
2024-05-13: 4.181711206519133
2024-05-12: 4.100797307632142
2024-05-11: 4.100797307632142
2024-05-10: 4.100797307632142
2024-05-09: 4.128788804957538
2024-05-08: 4.255007259228769
2024-05-07: 4.390935842683793
2024-05-06: 4.449637735452303
2024-05-05: 4.631036375437507
2024-05-04: 4.631036375437507
2024-05-03: 4.631036375437507
2024-05-02: 4.612896977700785
2024-05-01: 4.748908165028889
2024-04-30: 4.783299427206663
2024-04-29: 4.731887092016244
2024-04-28: 4.581972306260034
2024-04-27: 4.581972306260034
2024-04-26: 4.581972306260034
2024-04-25: 3.5078473573854985
2024-04-24: 3.1478799241955833
2024-04-23: 3.2070310847052266
2024-04-22: 3.2486212250642104
2024-04-21: 3.2255508293189443
2024-04-20: 3.2255508293189443
2024-04-19: 3.2255508293189443
2024-04-18: 3.1641075454908094
2024-04-17: 3.230606885463531
2024-04-16: 3.2747733762249367
2024-04-15: 3.3574106252098117
2024-04-14: 3.2611238835664254
2024-04-13: 3.2611238835664254
2024-04-12: 3.2611238835664254
2024-04-11: 3.277138717007671
2024-04-10: 3.2593130217336763
2024-04-09: 3.362872107540733
2024-04-08: 3.338678897227889
2024-04-07: 3.3842951444833163
2024-04-06: 3.3842951444833163
2024-04-05: 3.3842951444833163
2024-04-04: 3.353362682368311
2024-04-03: 3.2704887466346637
2024-04-02: 3.3428839192394624
2024-04-01: 3.3453668875238995
2024-03-31: 3.211555489796164
2024-03-30: 3.211555489796164
2024-03-29: 3.211555489796164
2024-03-28: 3.211555489796164
2024-03-27: 3.362527437651095
2024-03-26: 3.4122662488651496
2024-03-25: 3.500905249008178
2024-03-24: 3.545279376359194
2024-03-23: 3.545279376359194
2024-03-22: 3.545279376359194
2024-03-21: 3.514531743951837
2024-03-20: 3.5203032117832476
2024-03-19: 3.6294525384189344
2024-03-18: 3.702012526999704
2024-03-17: 3.150355556656396
2024-03-16: 3.150355556656396
2024-03-15: 3.150355556656396
2024-03-14: 3.152513064674588
2024-03-13: 3.1052745988957566
2024-03-12: 3.1466624273518473
2024-03-11: 3.2095325389724887
2024-03-10: 3.1750671959792984
2024-03-09: 3.1750671959792984
2024-03-08: 3.1750671959792984
2024-03-07: 3.107453303630635
2024-03-06: 3.076572598162091
2024-03-05: 3.10507812116699
2024-03-04: 3.1395857917845427
2024-03-03: 2.9823232421795622
2024-03-02: 2.9823232421795622
2024-03-01: 2.9823232421795622
2024-02-29: 3.063051353802961
2024-02-28: 3.109578381553087
2024-02-27: 3.0841984044736037
2024-02-26: 3.156750685396854
2024-02-25: 2.8986347698709314
2024-02-24: 2.8986347698709314
2024-02-23: 2.8986347698709314
2024-02-22: 3.0262979520068054
2024-02-21: 3.0722863439968155
2024-02-20: 3.1553588776610493
2024-02-19: 3.200599415105775
2024-02-18: 3.200599415105775
2024-02-17: 3.200599415105775
2024-02-16: 3.200599415105775
2024-02-15: 3.2142458652088983
2024-02-14: 3.0436613076930006
2024-02-13: 3.0925083277489294
2024-02-12: 3.0376046900308133
2024-02-11: 3.1210599583027956
2024-02-10: 3.1210599583027956
2024-02-09: 3.1210599583027956
2024-02-08: 3.0919875433055837
2024-02-07: 3.236049298594375
2024-02-06: 3.356118572829211
2024-02-05: 3.4488257600496426
2024-02-04: 3.4785150136034186
2024-02-03: 3.4785150136034186
2024-02-02: 3.4785150136034186
2024-02-01: 3.2794619601122132
2024-01-31: 3.306037183876533
2024-01-30: 2.676642585892941
2024-01-29: 2.697258549067413
2024-01-28: 2.72555911214814
2024-01-27: 2.72555911214814
2024-01-26: 2.72555911214814
2024-01-25: 2.8185597260124045
2024-01-24: 2.7036995962224992
2024-01-23: 2.6974189330354155
2024-01-22: 2.776818356799548
2024-01-21: 2.7959897754556096
2024-01-20: 2.7959897754556096
2024-01-19: 2.7959897754556096
2024-01-18: 2.784609420663097
2024-01-17: 2.7898944398687586
2024-01-16: 2.7307735428828566
2024-01-15: 2.7197161040302005
2024-01-14: 2.7197161040302005
2024-01-13: 2.7197161040302005
2024-01-12: 2.7197161040302005
2024-01-11: 2.823705002443586
2024-01-10: 2.6917017745673593
2024-01-09: 2.7393998634086643
2024-01-08: 2.695457131784075
2024-01-07: 2.6527095170629105
2024-01-06: 2.6527095170629105
2024-01-05: 2.6527095170629105
2024-01-04: 2.703506934207765
2024-01-03: 2.6972151928084678
2024-01-02: 2.7102632805174802
2024-01-01: 2.673991135840251
2023-12-31: 2.673991135840251
2023-12-30: 2.673991135840251
2023-12-29: 2.673991135840251
2023-12-28: 2.7592124036258774
2023-12-27: 2.8654762525304447
2023-12-26: 2.91891641327053
2023-12-25: 3.0298412097984415
2023-12-24: 3.0298412097984415
2023-12-23: 3.0298412097984415
2023-12-22: 3.0298412097984415
2023-12-21: 3.14319602617637
2023-12-20: 3.205798167611206
2023-12-19: 3.0673523877995414
2023-12-18: 3.175968368596866
2023-12-17: 3.0603878478129927
2023-12-16: 3.0603878478129927
2023-12-15: 3.0603878478129927
2023-12-14: 3.1181466880364574
2023-12-13: 3.0507288839053115
2023-12-12: 3.1382442399652444
2023-12-11: 3.2248669343528062
2023-12-10: 3.196155290378808
2023-12-09: 3.196155290378808
2023-12-08: 3.196155290378808
2023-12-07: 3.2208970758349778
2023-12-06: 2.8175105746258087
2023-12-05: 2.8847987066864986
2023-12-04: 2.8101056308425387
2023-12-03: 2.7243297799465878
2023-12-02: 2.7243297799465878
2023-12-01: 2.7243297799465878
2023-11-30: 2.7920730903317574
2023-11-29: 2.681272975455804
2023-11-28: 2.624472894774208
2023-11-27: 2.6868232968792425
2023-11-26: 2.708984461541425
2023-11-25: 2.708984461541425
2023-11-24: 2.708984461541425
2023-11-23: 2.7267494679929176
2023-11-22: 2.7267494679929176
2023-11-21: 2.7496950958958366
2023-11-20: 2.8681898528741905
2023-11-19: 2.8570283508363525
2023-11-18: 2.8570283508363525
2023-11-17: 2.8570283508363525
2023-11-16: 2.8267084351368554
2023-11-15: 2.823031757767148
2023-11-14: 2.9288681093376066
2023-11-13: 2.878913663603875
2023-11-12: 2.998197892216029
2023-11-11: 2.998197892216029
2023-11-10: 2.998197892216029
2023-11-09: 2.970351327039929
2023-11-08: 3.0097477076095713
2023-11-07: 3.1322329814550933
2023-11-06: 3.2183926961371756
2023-11-05: 3.3386290528105773
2023-11-04: 3.3386290528105773
2023-11-03: 3.3386290528105773
2023-11-02: 3.439901129979515
2023-11-01: 3.5116040741794015
2023-10-31: 3.570523577245196
2023-10-30: 3.6408373152979934
2023-10-29: 3.6746236398274106
2023-10-28: 3.6746236398274106
2023-10-27: 3.6746236398274106
2023-10-26: 3.720921475073853
2023-10-25: 3.676233863841373
2023-10-24: 2.9113884824150125
2023-10-23: 2.917276693022547
2023-10-22: 2.858805760312223
2023-10-21: 2.858805760312223
2023-10-20: 2.858805760312223
2023-10-19: 2.8659853489220177
2023-10-18: 2.912602743269293
2023-10-17: 2.8819844528618845
2023-10-16: 2.8962837195545807
2023-10-15: 2.9459946691121783
2023-10-14: 2.9459946691121783
2023-10-13: 2.9459946691121783
2023-10-12: 2.914894474966523
2023-10-11: 2.913425541188632
2023-10-10: 2.904981355045033
2023-10-09: 2.94621123691455
2023-10-08: 2.9189402956838144
2023-10-07: 2.9189402956838144
2023-10-06: 2.9189402956838144
2023-10-05: 2.8270485044135785
2023-10-04: 2.888969299702091
2023-10-03: 2.8717815412498653
2023-10-02: 2.9081702747527123
2023-10-01: 2.8604359104814376
2023-09-30: 2.8604359104814376
2023-09-29: 2.8604359104814376
2023-09-28: 2.799117897915845
2023-09-27: 2.7468070375902234
2023-09-26: 2.780445169284125
2023-09-25: 2.697724199688892
2023-09-24: 2.736736270408529
2023-09-23: 2.736736270408529
2023-09-22: 2.736736270408529
2023-09-21: 2.761974848983651
2023-09-20: 2.6946083578847686
2023-09-19: 2.561823882173334
2023-09-18: 2.622404514697181
2023-09-17: 2.6296978909153843
2023-09-16: 2.6296978909153843
2023-09-15: 2.6296978909153843
2023-09-14: 2.6764378154362736
2023-09-13: 2.69475076175882
2023-09-12: 2.6923600931898153
2023-09-11: 2.7675588199490364
2023-09-10: 2.851590382069763
2023-09-09: 2.851590382069763
2023-09-08: 2.851590382069763
2023-09-07: 2.9329366617933204
2023-09-06: 2.958017255778104
2023-09-05: 2.9674906427308163
2023-09-04: 3.0554650011914553
2023-09-03: 3.0554650011914553
2023-09-02: 3.0554650011914553
2023-09-01: 3.0554650011914553
2023-08-31: 3.0914961306101825
2023-08-30: 3.1607971555293752
2023-08-29: 3.2354302117394163
2023-08-28: 3.060376916456522
2023-08-27: 3.092973393568394
2023-08-26: 3.092973393568394
2023-08-25: 3.092973393568394
2023-08-24: 3.0632679567135126
2023-08-23: 2.9420686048384206
2023-08-22: 2.8382319205985223
2023-08-21: 2.9071140281006125
2023-08-20: 2.965282401352532
2023-08-19: 2.965282401352532
2023-08-18: 2.965282401352532
2023-08-17: 2.923464927029879
2023-08-16: 2.8974927530761123
2023-08-15: 2.9366218946865876
2023-08-14: 2.99934737736036
2023-08-13: 3.046312073518969
2023-08-12: 3.046312073518969
2023-08-11: 3.046312073518969
2023-08-10: 3.1464495177083154
2023-08-09: 3.19024145626324
2023-08-08: 3.2038543423123036
2023-08-07: 3.2985717441193816
2023-08-06: 3.2854436453221227
2023-08-05: 3.2854436453221227
2023-08-04: 3.2854436453221227
2023-08-03: 3.2636816490285887
2023-08-02: 3.3645274514005923
2023-08-01: 3.3191114367110095
2023-07-31: 3.4188809440528387
2023-07-30: 3.548439548639113
2023-07-29: 3.548439548639113
2023-07-28: 3.548439548639113
2023-07-27: 3.490482809839916
2023-07-26: 3.419681533255283
2023-07-25: 3.0140474291416517
2023-07-24: 3.083490801067819
2023-07-23: 3.093466397108132
2023-07-22: 3.093466397108132
2023-07-21: 3.093466397108132
2023-07-20: 3.159107582137114
2023-07-19: 2.9545464723511494
2023-07-18: 2.9241046995265303
2023-07-17: 3.017890933817604
2023-07-16: 3.0289200451855818
2023-07-15: 3.0289200451855818
2023-07-14: 3.0289200451855818
2023-07-13: 3.0110612595065955
2023-07-12: 2.7928241376817735
2023-07-11: 2.7644292272958673
2023-07-10: 2.797134706373023
2023-07-09: 2.75763449295653
2023-07-08: 2.75763449295653
2023-07-07: 2.75763449295653
2023-07-06: 2.8439525974845314
2023-07-05: 2.807290736198019
2023-07-04: 2.7655216082836054
2023-07-03: 2.7655216082836054
2023-07-02: 2.8737954615988643
2023-07-01: 2.8737954615988643
2023-06-30: 2.8737954615988643
2023-06-29: 2.943886665677026
2023-06-28: 3.026994094608405
2023-06-27: 2.9899254070381107
2023-06-26: 2.9927034242120505
2023-06-25: 2.9125867207872043
2023-06-24: 2.9125867207872043
2023-06-23: 2.9125867207872043
2023-06-22: 2.977274696452661
2023-06-21: 2.8700469478588406
2023-06-20: 2.86207846283477
2023-06-19: 2.8969581554635333
2023-06-18: 2.8969581554635333
2023-06-17: 2.8969581554635333
2023-06-16: 2.8969581554635333
2023-06-15: 2.9040220007622697
2023-06-14: 2.894092737098421
2023-06-13: 2.918472666153896
2023-06-12: 2.992001283744171
2023-06-11: 3.039924987540452
2023-06-10: 3.039924987540452
2023-06-09: 3.039924987540452
2023-06-08: 3.1327085822866865
2023-06-07: 3.2219542618464607
2023-06-06: 2.9421685445831223
2023-06-05: 2.9450861033323745
2023-06-04: 2.8979042478346564
2023-06-03: 2.8979042478346564
2023-06-02: 2.8979042478346564
2023-06-01: 2.9355395339306716
2023-05-31: 3.024106063918095
2023-05-30: 3.137784501487966
2023-05-29: 3.100088348093702
2023-05-28: 3.100088348093702
2023-05-27: 3.100088348093702
2023-05-26: 3.100088348093702
2023-05-25: 3.124302273902744
2023-05-24: 3.0276221659464153
2023-05-23: 3.0546499422839095
2023-05-22: 3.0730803801439555
2023-05-21: 3.0281196217086053
2023-05-20: 3.0281196217086053
2023-05-19: 3.0281196217086053
2023-05-18: 2.969788483705423
2023-05-17: 3.009141574844519
2023-05-16: 3.0286474814993802
2023-05-15: 2.932233463716914
2023-05-14: 2.96945974362775
2023-05-13: 2.96945974362775
2023-05-12: 2.96945974362775
2023-05-11: 3.0514856660960694
2023-05-10: 2.8157711526425064
2023-05-09: 2.6061480630886935
2023-05-08: 2.5809300003940407
2023-05-07: 2.5659718850323596
2023-05-06: 2.5659718850323596
2023-05-05: 2.5659718850323596
2023-05-04: 2.6283974452574808
2023-05-03: 2.706299508999495
2023-05-02: 2.7215716413223143
2023-05-01: 2.6648210416773632
2023-04-30: 2.780598447566171
2023-04-29: 2.780598447566171
2023-04-28: 2.780598447566171
2023-04-27: 2.8038725895752283
2023-04-26: 2.6512820049628316
2023-04-25: 2.5715879452946058
2023-04-24: 2.5520980460770915
2023-04-23: 2.6012565944372366
2023-04-22: 2.6012565944372366
2023-04-21: 2.6012565944372366
2023-04-20: 2.7083318533057197
2023-04-19: 2.735197485639966
2023-04-18: 2.7999652698274913
2023-04-17: 2.827017084075331
2023-04-16: 2.7128046002790898
2023-04-15: 2.7128046002790898
2023-04-14: 2.7128046002790898
2023-04-13: 2.7613627531533522
2023-04-12: 2.7564719931726316
2023-04-11: 2.7847527994760504
2023-04-10: 2.8426580124464254
2023-04-09: 2.8097087477525027
2023-04-08: 2.8097087477525027
2023-04-07: 2.8097087477525027
2023-04-06: 2.8097087477525027
2023-04-05: 2.656805095225032
2023-04-04: 2.6751324940117622
2023-04-03: 2.7634914963077395
2023-04-02: 2.777825727424435
2023-04-01: 2.777825727424435
2023-03-31: 2.777825727424435
2023-03-30: 2.7627632449472053
2023-03-29: 2.85252522290902
2023-03-28: 2.9316560771036104
2023-03-27: 2.9497753979600745
2023-03-26: 2.9090546992323434
2023-03-25: 2.9090546992323434
2023-03-24: 2.9090546992323434
2023-03-23: 2.9986325278864463
2023-03-22: 3.005892886574184
2023-03-21: 2.9885506818456338
2023-03-20: 2.922601132533507
2023-03-19: 3.004072490613328
2023-03-18: 3.004072490613328
2023-03-17: 3.004072490613328
2023-03-16: 3.026238429569829
2023-03-15: 2.825180524136324
2023-03-14: 2.7154024834433663
2023-03-13: 2.67647762263629
2023-03-12: 2.6421824117337165
2023-03-11: 2.6421824117337165
2023-03-10: 2.6421824117337165
2023-03-09: 2.66319697538048
2023-03-08: 2.5912819525165856
2023-03-07: 2.630493214826465
2023-03-06: 2.6696703540607842
2023-03-05: 2.6981372365347247
2023-03-04: 2.6981372365347247
2023-03-03: 2.6981372365347247
2023-03-02: 2.7737776407836736
2023-03-01: 2.7820406170350864
2023-02-28: 2.8923477927234567
2023-02-27: 2.9692040803103428
2023-02-26: 3.1190692184013584
2023-02-25: 3.1190692184013584
2023-02-24: 3.1190692184013584
2023-02-23: 3.182867535452458
2023-02-22: 3.261485065227381
2023-02-21: 3.3979980697145673
2023-02-20: 3.458853668086851
2023-02-19: 3.458853668086851
2023-02-18: 3.458853668086851
2023-02-17: 3.458853668086851
2023-02-16: 3.5457390680766303
2023-02-15: 3.5943219199016982
2023-02-14: 3.644354590704464
2023-02-13: 3.727210163274295
2023-02-12: 3.9102226966020055
2023-02-11: 3.9102226966020055
2023-02-10: 3.9102226966020055
2023-02-09: 4.020391622031962
2023-02-08: 3.841671688871202
2023-02-07: 3.4052127006111763
2023-02-06: 3.2645684122096266
2023-02-05: 3.2945733992732644
2023-02-04: 3.2945733992732644
2023-02-03: 3.2945733992732644
2023-02-02: 3.149230764011276
2023-02-01: 2.825726065465648
2023-01-31: 2.7678379865616276
2023-01-30: 2.8236800176265384
2023-01-29: 2.8144340601015805
2023-01-28: 2.8144340601015805
2023-01-27: 2.8144340601015805
2023-01-26: 2.801425453953924
2023-01-25: 2.8377396360217917
2023-01-24: 2.7556145842291278
2023-01-23: 2.7701051097583216
2023-01-22: 2.789522724209917
2023-01-21: 2.789522724209917
2023-01-20: 2.789522724209917
2023-01-19: 2.603805595372374
2023-01-18: 2.5768820580959697
2023-01-17: 2.6104099904733515
2023-01-16: 2.6434676293754897
2023-01-15: 2.6434676293754897
2023-01-14: 2.6434676293754897
2023-01-13: 2.6434676293754897
2023-01-12: 2.6897421499369196
2023-01-11: 2.735001597291725
2023-01-10: 2.702920752228465
2023-01-09: 2.694296586803806
2023-01-08: 2.6949195432787394
2023-01-07: 2.6949195432787394
2023-01-06: 2.6949195432787394
2023-01-05: 2.686441992830774
2023-01-04: 2.7268724600969856
2023-01-03: 2.6789167054456944
2023-01-02: 2.6699688031523694
2023-01-01: 2.6699688031523694
2022-12-31: 2.6699688031523694
2022-12-30: 2.6699688031523694
2022-12-29: 2.732007254786357
2022-12-28: 2.726384671236187
2022-12-27: 2.7759880092731186
2022-12-26: 2.820257318107389
2022-12-25: 2.820257318107389
2022-12-24: 2.820257318107389
2022-12-23: 2.820257318107389
2022-12-22: 2.8481074342212422
2022-12-21: 2.818627489600791
2022-12-20: 2.890575616917079
2022-12-19: 2.980258024165967
2022-12-18: 3.030328352067327
2022-12-17: 3.030328352067327
2022-12-16: 3.030328352067327
2022-12-15: 3.125423117055427
2022-12-14: 2.9800313173420476
2022-12-13: 2.959936563390213
2022-12-12: 2.713366703523098
2022-12-11: 2.773405871126759
2022-12-10: 2.773405871126759
2022-12-09: 2.773405871126759
2022-12-08: 2.871611695306649
2022-12-07: 2.9300984716785017
2022-12-06: 2.983172246462039
2022-12-05: 2.9564571460017977
2022-12-04: 3.0024093439944246
2022-12-03: 3.0024093439944246
2022-12-02: 3.0024093439944246
2022-12-01: 3.0740082250866623
2022-11-30: 3.15797643517992
2022-11-29: 2.8961424788724
2022-11-28: 2.965666084966457
2022-11-27: 3.043587612628115
2022-11-26: 3.043587612628115
2022-11-25: 3.043587612628115
2022-11-24: 3.1831636485254116
2022-11-23: 3.1831636485254116
2022-11-22: 3.297639917350353
2022-11-21: 3.3096017371694804
2022-11-20: 3.3323955659543096
2022-11-19: 3.3323955659543096
2022-11-18: 3.3323955659543096
2022-11-17: 3.3958289218781887
2022-11-16: 3.4671917099691796
2022-11-15: 3.581404807466278
2022-11-14: 3.518360376202833
2022-11-13: 3.6151604625038276
2022-11-12: 3.6151604625038276
2022-11-11: 3.6151604625038276
2022-11-10: 3.6637461777910256
2022-11-09: 3.4065052607902495
2022-11-08: 3.5038503869485695
2022-11-07: 3.565222844599405
2022-11-06: 3.662577571886378
2022-11-05: 3.662577571886378
2022-11-04: 3.662577571886378
2022-11-03: 3.6995622277987885
2022-11-02: 3.707367513127165
2022-11-01: 3.664687391748567
2022-10-31: 3.5150288255289586
2022-10-30: 3.6092861395997535
2022-10-29: 3.6092861395997535
2022-10-28: 3.6092861395997535
2022-10-27: 3.549911479671194
2022-10-26: 3.546205269468251
2022-10-25: 3.072531788663722
2022-10-24: 3.1335115274956262
2022-10-23: 3.16334701789281
2022-10-22: 3.16334701789281
2022-10-21: 3.16334701789281
2022-10-20: 3.1329550379348383
2022-10-19: 3.1505479041419537
2022-10-18: 3.232779184741348
2022-10-17: 3.214590104269523
2022-10-16: 3.1286665118689685
2022-10-15: 3.1286665118689685
2022-10-14: 3.1286665118689685
2022-10-13: 3.039946246356318
2022-10-12: 2.8620544351560526
2022-10-11: 2.928955892361472
2022-10-10: 2.9300938866252633
2022-10-09: 2.9961298244350467
2022-10-08: 2.9961298244350467
2022-10-07: 2.9961298244350467
2022-10-06: 2.988710822400174
2022-10-05: 3.0401934129268415
2022-10-04: 3.035401625071909
2022-10-03: 3.0249039101380184
2022-10-02: 2.98005071822391
2022-10-01: 2.98005071822391
2022-09-30: 2.98005071822391
2022-09-29: 2.954620167468524
2022-09-28: 2.870048872497514
2022-09-27: 2.8170955006958494
2022-09-26: 2.795142344422027
2022-09-25: 2.85156003785595
2022-09-24: 2.85156003785595
2022-09-23: 2.85156003785595
2022-09-22: 2.8673310285047906
2022-09-21: 2.901090087307539
2022-09-20: 2.8489992161683966
2022-09-19: 2.873722146628928
2022-09-18: 2.9590581619316745
2022-09-17: 2.9590581619316745
2022-09-16: 2.9590581619316745
2022-09-15: 3.0196975141038216
2022-09-14: 3.0293409131272666
2022-09-13: 3.138847404476853
2022-09-12: 2.8641052652335395
2022-09-11: 2.955563485137638
2022-09-10: 2.955563485137638
2022-09-09: 2.955563485137638
2022-09-08: 2.9839092091939934
2022-09-07: 3.0273984569797627
2022-09-06: 3.0185716908240985
2022-09-05: 3.079213822024237
2022-09-04: 3.079213822024237
2022-09-03: 3.079213822024237
2022-09-02: 3.079213822024237
2022-09-01: 3.0507372592629727
2022-08-31: 3.0498064453683624
2022-08-30: 3.0770150884148717
2022-08-29: 3.107841947769357
2022-08-28: 3.182976186705786
2022-08-27: 3.182976186705786
2022-08-26: 3.182976186705786
2022-08-25: 2.9352649182843327
2022-08-24: 2.9300256868429653
2022-08-23: 3.009780860430468
2022-08-22: 3.1208320998020347
2022-08-21: 3.104706491973171
2022-08-20: 3.104706491973171
2022-08-19: 3.104706491973171
2022-08-18: 3.0835275870471475
2022-08-17: 3.160603475718438
2022-08-16: 3.2268339387899143
2022-08-15: 3.3385697740345432
2022-08-14: 3.46652526491493
2022-08-13: 3.46652526491493
2022-08-12: 3.46652526491493
2022-08-11: 3.516638883950851
2022-08-10: 3.563745910743862
2022-08-09: 3.5107813522713456
2022-08-08: 3.658083765759916
2022-08-07: 3.6901468474921217
2022-08-06: 3.6901468474921217
2022-08-05: 3.6901468474921217
2022-08-04: 3.8070229735345515
2022-08-03: 3.9557641683396727
2022-08-02: 3.9939504733025784
2022-08-01: 4.1006481152388625
2022-07-31: 4.234614392632445
2022-07-30: 4.234614392632445
2022-07-29: 4.234614392632445
2022-07-28: 4.2820523928490015
2022-07-27: 4.391849954500799
2022-07-26: 4.051848208682158
2022-07-25: 4.101239307769037
2022-07-24: 4.144517572783808
2022-07-23: 4.144517572783808
2022-07-22: 4.144517572783808
2022-07-21: 3.865549385485754
2022-07-20: 3.9006095296991514
2022-07-19: 3.978015408596241
2022-07-18: 3.903544513858787
2022-07-17: 3.7989459085989323
2022-07-16: 3.7989459085989323
2022-07-15: 3.7989459085989323
2022-07-14: 3.8797398248984347
2022-07-13: 3.950926752931282
2022-07-12: 4.026522656948884
2022-07-11: 4.085860371682835
2022-07-10: 4.093415523072057
2022-07-09: 4.093415523072057
2022-07-08: 4.093415523072057
2022-07-07: 4.196060129815668
2022-07-06: 4.166763425012187
2022-07-05: 4.173641526328421
2022-07-04: 3.9117445775361848
2022-07-03: 3.9117445775361848
2022-07-02: 3.9117445775361848
2022-07-01: 3.9117445775361848
2022-06-30: 4.0205436929978
2022-06-29: 3.9522794794949045
2022-06-28: 4.081847746534412
2022-06-27: 3.979412979255169
2022-06-26: 4.026281818537253
2022-06-25: 4.026281818537253
2022-06-24: 4.026281818537253
2022-06-23: 3.8909414208097512
2022-06-22: 4.019299129055159
2022-06-21: 4.102480197923052
2022-06-20: 4.010438907111389
2022-06-19: 4.010438907111389
2022-06-18: 4.010438907111389
2022-06-17: 4.010438907111389
2022-06-16: 4.040365624138032
2022-06-15: 3.998405977432197
2022-06-14: 3.9470057377776953
2022-06-13: 4.088635114246555
2022-06-12: 4.018671018155784
2022-06-11: 4.018671018155784
2022-06-10: 4.018671018155784
2022-06-09: 3.9870135458667524
2022-06-08: 4.025088612909364
2022-06-07: 4.184465783771924
2022-06-06: 4.305132003253939
2022-06-05: 4.269852431206225
2022-06-04: 4.269852431206225
2022-06-03: 4.269852431206225
2022-06-02: 4.285385326709252
2022-06-01: 4.237379462754706
2022-05-31: 4.269666364091498
2022-05-30: 4.319305007482896
2022-05-29: 4.319305007482896
2022-05-28: 4.319305007482896
2022-05-27: 4.319305007482896
2022-05-26: 4.306503867602978
2022-05-25: 4.376665656462211
2022-05-24: 4.511773243635447
2022-05-23: 4.126594903306859
2022-05-22: 4.184289826824755
2022-05-21: 4.184289826824755
2022-05-20: 4.184289826824755
2022-05-19: 4.019168769233783
2022-05-18: 4.0988320562319585
2022-05-17: 4.039183342801034
2022-05-16: 4.162704280819514
2022-05-15: 4.309031480776006
2022-05-14: 4.309031480776006
2022-05-13: 4.309031480776006
2022-05-12: 4.256895264243532
2022-05-11: 4.243486881620298
2022-05-10: 4.331408558655402
2022-05-09: 4.379506862829357
2022-05-08: 4.430770433006095
2022-05-07: 4.430770433006095
2022-05-06: 4.430770433006095
2022-05-05: 4.500464691261844
2022-05-04: 4.29344454964262
2022-05-03: 4.033672091026171
2022-05-02: 4.160389851740954
2022-05-01: 4.164337978799908
2022-04-30: 4.164337978799908
2022-04-29: 4.164337978799908
2022-04-28: 4.125700932579058
2022-04-27: 4.021073611325005
2022-04-26: 3.879499638087507
2022-04-25: 3.830008282375726
2022-04-24: 3.7611934774780247
2022-04-23: 3.7611934774780247
2022-04-22: 3.7611934774780247
2022-04-21: 3.556664558300316
2022-04-20: 3.4054060357230056
2022-04-19: 3.37007321771712
2022-04-18: 3.3751406440999623
2022-04-17: 3.4799477841019044
2022-04-16: 3.4799477841019044
2022-04-15: 3.4799477841019044
2022-04-14: 3.4799477841019044
2022-04-13: 3.451911444739702
2022-04-12: 3.5177131297317232
2022-04-11: 3.421481905892556
2022-04-10: 3.3324885386195455
2022-04-09: 3.3324885386195455
2022-04-08: 3.3324885386195455
2022-04-07: 3.365962165083845
2022-04-06: 3.400944055251031
2022-04-05: 3.2756753954942295
2022-04-04: 3.3287993276846306
2022-04-03: 3.313306648697149
2022-04-02: 3.313306648697149
2022-04-01: 3.313306648697149
2022-03-31: 3.403216255079312
2022-03-30: 3.42989487630301
2022-03-29: 3.6082983888788345
2022-03-28: 3.7075913073087574
2022-03-27: 3.825732879550595
2022-03-26: 3.825732879550595
2022-03-25: 3.825732879550595
2022-03-24: 3.944842624028643
2022-03-23: 3.9533306288675294
2022-03-22: 4.102423427452611
2022-03-21: 4.040685458497007
2022-03-20: 4.12600671244877
2022-03-19: 4.12600671244877
2022-03-18: 4.12600671244877
2022-03-17: 4.139509233524725
2022-03-16: 4.313406441098615
2022-03-15: 4.294585552566716
2022-03-14: 4.309732512957941
2022-03-13: 4.249798736983167
2022-03-12: 4.249798736983167
2022-03-11: 4.249798736983167
2022-03-10: 4.259213842175384
2022-03-09: 4.395656536166717
2022-03-08: 4.228188705787328
2022-03-07: 4.128318764252466
2022-03-06: 4.018022292339301
2022-03-05: 4.018022292339301
2022-03-04: 4.018022292339301
2022-03-03: 4.055507205769137
2022-03-02: 4.107162105503135
2022-03-01: 4.256041299202443
2022-02-28: 4.351868200486759
2022-02-27: 4.4457635908231445
2022-02-26: 4.4457635908231445
2022-02-25: 4.4457635908231445
2022-02-24: 4.519355896426012
2022-02-23: 4.253476560764693
2022-02-22: 4.235763935097559
2022-02-21: 4.259882646549443
2022-02-20: 4.259882646549443
2022-02-19: 4.259882646549443
2022-02-18: 4.259882646549443
2022-02-17: 4.2922230203955
2022-02-16: 4.2213738115155435
2022-02-15: 4.305002137778524
2022-02-14: 4.439246799755375
2022-02-13: 4.548669993916452
2022-02-12: 4.548669993916452
2022-02-11: 4.548669993916452
2022-02-10: 4.459651535300777
2022-02-09: 4.525542437420817
2022-02-08: 4.635350145540711
2022-02-07: 4.764243493648164
2022-02-06: 4.7228017243821565
2022-02-05: 4.7228017243821565
2022-02-04: 4.7228017243821565
2022-02-03: 4.753657534361895
2022-02-02: 4.584868448097609
2022-02-01: 3.877519618925226
2022-01-31: 3.9146830045715855
2022-01-30: 3.9669806609221876
2022-01-29: 3.9669806609221876
2022-01-28: 3.9669806609221876
2022-01-27: 3.9006946475146616
2022-01-26: 3.917109450755618
2022-01-25: 3.75598516931257
2022-01-24: 3.71677777894166
2022-01-23: 3.491596695456469
2022-01-22: 3.491596695456469
2022-01-21: 3.491596695456469
2022-01-20: 3.3957958745332135
2022-01-19: 3.3015829373014594
2022-01-18: 3.33108027938647
2022-01-17: 3.2791265315038496
2022-01-16: 3.2791265315038496
2022-01-15: 3.2791265315038496
2022-01-14: 3.2791265315038496
2022-01-13: 3.2459357814780794
2022-01-12: 3.157007525797658
2022-01-11: 3.1808751240097695
2022-01-10: 3.1569010662671837
2022-01-09: 2.968557554265971
2022-01-08: 2.968557554265971
2022-01-07: 2.968557554265971
2022-01-06: 2.992413968092597
2022-01-05: 2.964769537789766
2022-01-04: 2.673462475582443
2022-01-03: 2.6680239435327393
2022-01-02: 2.7102422461037388
2022-01-01: 2.7102422461037388
2021-12-31: 2.7102422461037388
2021-12-30: 2.7779356807433717
2021-12-29: 2.892088469617866
2021-12-28: 2.9796423270681816
2021-12-27: 3.0377131634138497
2021-12-26: 3.1625488819161003
2021-12-25: 3.1625488819161003
2021-12-24: 3.1625488819161003
2021-12-23: 3.1625488819161003
2021-12-22: 3.2664095380752207
2021-12-21: 3.2559536884619025
2021-12-20: 3.249725667812195
2021-12-19: 3.3126372612579074
2021-12-18: 3.3126372612579074
2021-12-17: 3.3126372612579074
2021-12-16: 3.3276612158365597
2021-12-15: 3.2733042608291103
2021-12-14: 3.140569921645949
2021-12-13: 3.030526706682888
2021-12-12: 3.074253703129362
2021-12-11: 3.074253703129362
2021-12-10: 3.074253703129362
2021-12-09: 3.137395435152397
2021-12-08: 3.2273955946215183
2021-12-07: 3.3241683913518743
2021-12-06: 3.246201552749787
2021-12-05: 3.2135994313777974
2021-12-04: 3.2135994313777974
2021-12-03: 3.2135994313777974
2021-12-02: 3.1482510622503375
2021-12-01: 3.112114848190138
2021-11-30: 2.967307042105714
2021-11-29: 2.860164484855693
2021-11-28: 2.766438795041703
2021-11-27: 2.766438795041703
2021-11-26: 2.766438795041703
2021-11-25: 2.653066715880823
2021-11-24: 2.653066715880823
2021-11-23: 2.714089267938212
2021-11-22: 2.728821547808763
2021-11-21: 2.6579664816569433
2021-11-20: 2.6579664816569433
2021-11-19: 2.6579664816569433
2021-11-18: 2.7048013030701914
2021-11-17: 2.7073021200203184
2021-11-16: 2.814994081049505
2021-11-15: 2.921021859711038
2021-11-14: 2.99520191691447
2021-11-13: 2.99520191691447
2021-11-12: 2.99520191691447
2021-11-11: 2.9633713092170306
2021-11-10: 3.0438292044165336
2021-11-09: 2.943871184274969
2021-11-08: 2.9728995484895497
2021-11-07: 3.035065511517639
2021-11-06: 3.035065511517639
2021-11-05: 3.035065511517639
2021-11-04: 3.1061420881707065
2021-11-03: 3.08387345045338
2021-11-02: 3.1627220784304226
2021-11-01: 3.1687324621080193
2021-10-31: 3.044805823232195
2021-10-30: 3.044805823232195
2021-10-29: 3.044805823232195
2021-10-28: 3.0050610098632764
2021-10-27: 3.0432830283209826
2021-10-26: 2.564514152420465
2021-10-25: 2.5607942808714794
2021-10-24: 2.561366765481903
2021-10-23: 2.561366765481903
2021-10-22: 2.561366765481903
2021-10-21: 2.31348086585869
2021-10-20: 2.365263854343518
2021-10-19: 2.381819044197471
2021-10-18: 2.48422616575887
2021-10-17: 2.5438069562276584
2021-10-16: 2.5438069562276584
2021-10-15: 2.5438069562276584
2021-10-14: 2.666340030606394
2021-10-13: 2.584897022171265
2021-10-12: 2.665693290947083
2021-10-11: 2.5848166028955006
2021-10-10: 2.6425403023188516
2021-10-09: 2.6425403023188516
2021-10-08: 2.6425403023188516
2021-10-07: 2.761306897278836
2021-10-06: 2.784934185401225
2021-10-05: 2.7550546184847704
2021-10-04: 2.6949121717111364
2021-10-03: 2.4824385828388893
2021-10-02: 2.4824385828388893
2021-10-01: 2.4824385828388893
2021-09-30: 2.426502519752632
2021-09-29: 2.4618757254168133
2021-09-28: 2.400359963541022
2021-09-27: 2.1479610641415907
2021-09-26: 2.1494595360067024
2021-09-25: 2.1494595360067024
2021-09-24: 2.1494595360067024
2021-09-23: 2.155526226935448
2021-09-22: 2.2140388320875535
2021-09-21: 2.206211721463107
2021-09-20: 2.2440756817307883
2021-09-19: 2.073663660849977
2021-09-18: 2.073663660849977
2021-09-17: 2.073663660849977
2021-09-16: 1.9929443917079805
2021-09-15: 1.9916031251908888
2021-09-14: 1.9072202745956173
2021-09-13: 1.9312458862981225
2021-09-12: 1.92153347662274
2021-09-11: 1.92153347662274
2021-09-10: 1.92153347662274
2021-09-09: 1.7635299058293057
2021-09-08: 1.813587658650329
2021-09-07: 1.8469148683491903
2021-09-06: 1.918158141240199
2021-09-05: 1.918158141240199
2021-09-04: 1.918158141240199
2021-09-03: 1.918158141240199
2021-09-02: 1.9322100154799247
2021-09-01: 1.9022065733730766
2021-08-31: 1.9304970109583173
2021-08-30: 2.0131318045939737
2021-08-29: 2.0181818110198373
2021-08-28: 2.0181818110198373
2021-08-27: 2.0181818110198373
2021-08-26: 1.9368758792674237
2021-08-25: 2.007165119838738
2021-08-24: 2.093669356206941
2021-08-23: 2.099499501583182
2021-08-22: 1.994290446318068
2021-08-21: 1.994290446318068
2021-08-20: 1.994290446318068
2021-08-19: 1.9710648562400603
2021-08-18: 1.96197197007209
2021-08-17: 1.9776975734404443
2021-08-16: 1.9590260063375236
2021-08-15: 1.8712605043906256
2021-08-14: 1.8712605043906256
2021-08-13: 1.8712605043906256
2021-08-12: 1.957579323918175
2021-08-11: 1.9657651549393764
2021-08-10: 2.0126472932611796
2021-08-09: 2.06394397344242
2021-08-08: 2.0836569813942187
2021-08-07: 2.0836569813942187
2021-08-06: 2.0836569813942187
2021-08-05: 2.1537523763737085
2021-08-04: 2.20999957022523
2021-08-03: 2.3004550163263944
2021-08-02: 2.2926197059361137
2021-08-01: 2.359117032031725
2021-07-31: 2.359117032031725
2021-07-30: 2.359117032031725
2021-07-29: 2.4338897157961057
2021-07-28: 2.551812701550891
2021-07-27: 2.210681093064929
2021-07-26: 2.023974857182579
2021-07-25: 2.0337378127093904
2021-07-24: 2.0337378127093904
2021-07-23: 2.0337378127093904
2021-07-22: 1.7610702369008895
2021-07-21: 1.8362306962989523
2021-07-20: 1.8632875679158771
2021-07-19: 1.7831106768375253
2021-07-18: 1.6149383501550687
2021-07-17: 1.6149383501550687
2021-07-16: 1.6149383501550687
2021-07-15: 1.6119633932803281
2021-07-14: 1.5540844977187906
2021-07-13: 1.5082863726008242
2021-07-12: 1.524043744256605
2021-07-11: 1.5224564951485395
2021-07-10: 1.5224564951485395
2021-07-09: 1.5224564951485395
2021-07-08: 1.5659746166338602
2021-07-07: 1.4530864246543693
2021-07-06: 1.4989041314028781
2021-07-05: 1.450348912421375
2021-07-04: 1.450348912421375
2021-07-03: 1.450348912421375
2021-07-02: 1.450348912421375
2021-07-01: 1.2159596712509118
2021-06-30: 1.2451530266956452
2021-06-29: 1.308864258749388
2021-06-28: 1.3068396004564409
2021-06-27: 1.2918004941527905
2021-06-26: 1.2918004941527905
2021-06-25: 1.2918004941527905
2021-06-24: 1.3617228136048527
2021-06-23: 1.5320462886426605
2021-06-22: 1.6895920809733351
2021-06-21: 2.08303084225993


ATR: Averages true range to measure volatility. Usage: Set stop-loss levels and adjust position sizes based on current market volatility. Tips: It's a reactive measure, so use it as part of a broader risk management strategy.